#Wave		#Intensity
3999.120117	-6.892938
3998.482422	26.677366
3997.845703	37.729221
3997.208008	3.784558
3996.570312	11.089315
3995.932617	-0.348630
3995.294922	21.946997
3994.657227	40.489357
3994.019531	14.069266
3993.380859	2.641759
3992.743164	-12.526087
3992.104492	17.247349
3991.466797	9.572017
3990.828125	9.386705
3990.189453	1.716738
3989.550781	-2.207583
3988.912109	5.095189
3988.273438	4.914492
3987.634766	-2.746053
3986.995117	30.734589
3986.356445	15.595782
3985.716797	11.678390
3985.077148	15.239219
3984.437500	-7.362063
3983.798828	18.623657
3983.159180	-15.177663
3982.518555	-11.611340
3981.878906	-8.045000
3981.239258	-23.150908
3980.598633	-12.114654
3979.958984	-4.814001
3979.318359	-1.247621
3978.677734	6.050518
3978.037109	-1.578367
3977.396484	35.565674
3976.755859	24.206104
3976.115234	-2.067276
3975.474609	35.061604
3974.833008	-21.030636
3974.192383	-10.003411
3973.550781	-10.160644
3972.910156	15.769436
3972.268555	15.609889
3971.626953	4.275112
3970.985352	37.642368
3970.343750	30.033649
3969.701172	14.980870
3969.059570	-7.511940
3968.416992	14.671858
3967.775391	18.240635
3967.132812	-22.845375
3966.490234	21.656359
3965.848633	28.944895
3965.206055	6.476593
3964.562500	17.485346
3963.919922	-8.690335
3963.277344	9.754435
3962.633789	13.325934
3961.991211	5.748138
3961.347656	-24.121359
3960.705078	-1.967359
3960.061523	9.036346
3959.417969	20.037352
3958.774414	-2.384994
3958.130859	1.190389
3957.486328	12.189682
3956.842773	15.763237
3956.198242	8.203251
3955.554688	37.750874
3954.910156	7.932545
3954.265625	30.053724
3953.621094	-3.460716
3952.976562	-25.839457
3952.332031	-22.258183
3951.687500	7.270555
3951.042969	7.140740
3950.397461	25.539780
3949.752930	-15.346702
3949.107422	-15.470540
3948.461914	17.741045
3947.816406	6.503794
3947.170898	24.892149
3946.525391	-8.553332
3945.879883	13.534577
3945.234375	6.009303
3944.587891	2.187338
3943.942383	-12.731432
3943.295898	16.744053
3942.650391	1.829322
3942.003906	9.107273
3941.357422	8.989100
3940.710938	-39.185146
3940.064453	1.363026
3939.416992	-32.011101
3938.770508	15.914181
3938.124023	-6.366935
3937.476562	37.846439
3936.829102	-13.974530
3936.182617	4.379888
3935.535156	7.961325
3934.887695	-29.062204
3934.240234	22.504448
3933.591797	3.942538
3932.944336	-14.612493
3932.296875	11.106524
3931.648438	3.622716
3931.000000	3.517565
3930.352539	-0.273834
3929.704102	47.548492
3929.055664	-7.851045
3928.407227	-7.951344
3927.758789	-8.050893
3927.109375	-30.254934
3926.460938	13.853723
3925.811523	28.484745
3925.163086	9.970242
3924.513672	2.507728
3923.864258	42.904163
3923.214844	50.162666
3922.565430	2.219057
3921.916016	-8.914005
3921.266602	5.709131
3920.616211	12.971620
3919.966797	5.521954
3919.316406	1.752331
3918.666992	1.661201
3918.016602	1.570659
3917.366211	1.480835
3916.715820	19.765186
3916.065430	-6.044881
3915.415039	8.562630
3914.763672	-9.890246
3914.113281	23.076126
3913.461914	-2.715256
3912.811523	-21.155273
3912.160156	26.481031
3911.508789	0.703558
3910.857422	-3.048775
3910.206055	0.538292
3909.554688	7.793034
3908.903320	15.046075
3908.250977	14.963340
3907.599609	18.547770
3906.947266	22.131578
3906.294922	-21.932983
3905.643555	-11.013171
3904.991211	-0.096352
3904.338867	-14.826544
3903.685547	-3.911477
3903.033203	-14.972789
3902.380859	-4.059881
3901.727539	-18.777542
3901.075195	10.436152
3900.421875	-4.277875
3899.768555	6.628624
3899.115234	-8.078827
3898.461914	-8.148411
3897.808594	10.070316
3897.155273	6.342073
3896.501953	17.241062
3895.847656	2.546653
3895.194336	35.374992
3894.540039	9.719807
3893.885742	-37.850510
3893.231445	24.197388
3892.577148	-23.358755
3891.922852	-16.115519
3891.268555	-5.222407
3890.614258	34.876163
3889.958984	-8.998348
3889.304688	-9.059591
3888.649414	-16.418888
3887.994141	-16.477867
3887.338867	1.704254
3886.683594	12.586034
3886.028320	34.405628
3885.373047	-2.122721
3884.717773	1.464534
3884.061523	8.696266
3883.406250	-9.585761
3882.750000	23.154392
3882.094727	-27.913580
3881.438477	-2.465602
3880.782227	-9.805305
3880.125977	8.349319
3879.469727	15.575460
3878.812500	19.159267
3878.156250	0.903262
3877.500000	4.489365
3876.842773	22.629536
3876.185547	-13.807265
3875.528320	-17.494110
3874.871094	0.642328
3874.213867	15.137060
3873.556641	25.991850
3872.899414	0.491904
3872.242188	-3.191814
3871.583984	-10.507907
3870.926758	7.612773
3870.268555	7.563902
3869.610352	-3.381184
3868.952148	3.835989
3868.293945	7.420237
3867.635742	-18.040030
3866.977539	10.956768
3866.319336	-10.865620
3865.660156	21.750242
3865.001953	3.562200
3864.342773	-3.736913
3863.683594	17.982471
3863.024414	-3.821223
3862.365234	10.640470
3861.706055	25.097939
3861.046875	-3.944260
3860.387695	6.887722
3859.727539	6.846258
3859.068359	-4.063317
3858.408203	3.142412
3857.748047	-4.140538
3857.088867	3.063751
3856.428711	3.025053
3855.768555	6.606713
3855.107422	-4.289817
3854.447266	-22.419916
3853.787109	2.874449
3853.125977	6.455416
3852.464844	24.503691
3851.804688	17.231543
3851.143555	-18.964666
3850.482422	-0.919850
3849.821289	13.504842
3849.160156	-8.215686
3848.498047	6.206267
3847.836914	-8.279449
3847.175781	-4.698390
3846.513672	-55.294533
3845.851562	-4.761035
3845.189453	9.650579
3844.527344	-26.482216
3843.865234	2.366682
3843.203125	16.771244
3842.541016	-30.168890
3841.878906	-19.370687
3841.215820	-8.575644
3840.553711	2.216276
3839.890625	13.005032
3839.227539	5.763924
3838.564453	2.130258
3837.901367	5.706461
3837.238281	-8.736145
3836.575195	2.047348
3835.911133	-5.184492
3835.248047	5.595593
3834.583984	16.372501
3833.920898	1.941465
3833.256836	-5.284403
3832.592773	1.890463
3831.928711	16.261202
3831.264648	16.234177
3830.599609	-26.965881
3829.935547	-12.596523
3829.271484	-5.424748
3828.606445	19.725159
3827.941406	-1.873634
3827.277344	-16.275400
3826.612305	-5.512222
3825.947266	16.028896
3825.282227	12.411435
3824.616211	19.573055
3823.951172	1.588890
3823.285156	-5.615039
3822.620117	8.728462
3821.954102	1.526242
3821.288086	-2.083734
3820.623047	-27.226646
3819.957031	8.643008
3819.290039	-20.080910
3818.624023	5.014549
3817.958008	1.408209
3817.291016	4.975592
3816.625000	15.713247
3815.958008	-5.817351
3815.291016	-5.834208
3814.625000	12.068388
3813.958008	-27.366777
3813.290039	29.943489
3812.623047	-13.063459
3811.956055	26.318800
3811.288086	-5.930372
3810.621094	26.277710
3809.953125	47.736233
3809.285156	-16.712978
3808.618164	-16.725796
3807.950195	4.729904
3807.282227	19.023928
3806.613281	11.852176
3805.945312	18.988195
3805.277344	-2.483773
3804.608398	-23.948606
3803.939453	11.786978
3803.271484	-6.098829
3802.602539	-9.684969
3801.933594	15.312997
3801.264648	4.580390
3800.594727	-6.148562
3799.925781	18.837252
3799.256836	-24.024994
3798.586914	-9.753892
3797.916992	11.651516
3797.248047	-13.344245
3796.578125	-2.649514
3795.908203	4.474268
3795.238281	-9.806505
3794.568359	15.148912
3793.897461	8.003170
3793.227539	-16.966793
3792.556641	4.413367
3791.886719	-2.726721
3791.215820	-2.737136
3790.544922	15.067747
3789.874023	7.929831
3789.203125	4.356232
3788.532227	4.345230
3787.860352	18.577269
3787.189453	-24.157566
3786.517578	11.432173
3785.846680	4.302544
3785.174805	18.525871
3784.502930	14.955497
3783.831055	7.829116
3783.159180	4.261856
3782.487305	7.808088
3781.814453	32.686550
3781.142578	25.562351
3780.469727	4.223000
3779.797852	-6.447899
3779.125000	-13.561998
3778.452148	0.642290
3777.779297	36.154625
3777.106445	-6.477793
3776.433594	0.616845
3775.759766	0.608550
3775.086914	18.349285
3774.414062	14.789070
3773.740234	11.230084
3773.066406	0.576190
3772.392578	18.305761
3771.718750	11.201238
3771.044922	-38.457050
3770.371094	14.728134
3769.697266	11.173035
3769.022461	-6.559341
3768.348633	14.698607
3767.673828	4.058473
3766.999023	0.507633
3766.324219	-3.042009
3765.649414	7.576564
3764.974609	28.815287
3764.299805	-20.764950
3763.625000	-3.068464
3762.949219	-6.614419
3762.274414	35.846325
3761.598633	32.295284
3760.922852	-6.631974
3760.247070	11.048083
3759.571289	21.649250
3758.895508	0.422821
3758.219727	-10.190372
3757.542969	0.409164
3756.867188	-13.734850
3756.190430	21.597975
3755.514648	42.786732
3754.837891	-13.748260
3754.161133	46.291538
3753.484375	32.151608
3752.807617	10.954526
3752.130859	0.355203
3751.453125	-6.710952
3750.776367	28.575031
3750.098633	42.678082
3749.421875	-13.783672
3748.744141	7.376538
3748.066406	14.422411
3747.388672	14.413393
3746.710938	-3.224272
3746.032227	-34.956841
3745.354492	7.337090
3744.676758	17.901178
3743.998047	14.368068
3743.319336	-6.778273
3742.640625	17.872103
3741.961914	-10.311477
3741.283203	-13.837846
3740.604492	-17.363110
3739.925781	7.272867
3739.247070	7.264697
3738.567383	-10.337889
3737.888672	10.766550
3737.208984	3.722216
3736.529297	7.231623
3735.849609	17.773031
3735.169922	24.794939
3734.490234	14.237242
3733.809570	14.227570
3733.129883	21.246471
3732.450195	35.290531
3731.769531	7.171859
3731.088867	31.751343
3730.408203	14.178341
3729.727539	21.191238
3729.046875	0.114604
3728.366211	-38.506931
3727.685547	14.137789
3727.003906	24.655054
3726.323242	-3.426039
3725.641602	24.630779
3724.960938	24.618523
3724.279297	28.113110
3723.597656	21.087423
3722.916016	-3.464971
3722.233398	-17.493858
3721.551758	24.556005
3720.870117	-17.505671
3720.187500	-3.497680
3719.504883	17.511551
3718.823242	10.494882
3718.140625	6.982206
3717.458008	24.477972
3716.775391	6.961273
3716.091797	-0.049538
3715.409180	-38.553986
3714.726562	27.922892
3714.042969	13.914952
3713.359375	13.902770
3712.676758	13.890460
3711.993164	6.884651
3711.309570	6.873252
3710.625977	27.835096
3709.941406	17.335075
3709.257812	-0.150532
3708.573242	3.332578
3707.889648	-7.158756
3707.205078	31.251371
3706.520508	20.758648
3705.835938	17.252386
3705.151367	-3.708022
3704.466797	-0.228534
3703.782227	20.699156
3703.097656	3.237294
3702.412109	27.646118
3701.726562	6.700305
3701.041992	38.075619
3700.356445	17.134609
3699.670898	3.173239
3698.985352	17.103731
3698.299805	-0.338783
3697.613281	31.011463
3696.927734	3.119327
3696.241211	-10.829226
3695.555664	-17.807199
3694.869141	-0.405276
3694.182617	-0.419053
3693.496094	-3.914402
3692.809570	13.476300
3692.123047	34.341473
3691.436523	-3.955499
3690.749023	-14.406995
3690.062500	9.930608
3689.375000	34.260139
3688.687500	16.852085
3688.000000	20.310865
3687.312500	-14.471292
3686.625000	-4.057378
3685.937500	16.778574
3685.250000	23.709032
3684.561523	2.844450
3683.874023	23.668583
3683.185547	37.539864
3682.497070	23.627390
3681.808594	-4.168034
3681.120117	13.171682
3680.431641	-11.142725
3679.743164	-0.748150
3679.053711	-21.583239
3678.365234	9.623269
3677.675781	2.666609
3676.986328	9.583512
3676.297852	13.030658
3675.608398	6.076218
3674.918945	-21.673288
3674.228516	33.760967
3673.539062	19.875797
3672.849609	-4.398570
3672.159180	-4.417723
3671.469727	33.660038
3670.779297	19.783035
3670.088867	12.834820
3669.398438	-14.881484
3668.708008	9.327869
3668.017578	5.844639
3667.326172	-25.317703
3666.635742	9.259196
3665.944336	9.235869
3665.253906	2.295700
3664.562500	-4.642461
3663.871094	22.993328
3663.179688	5.683715
3662.488281	16.028046
3661.796875	-15.097312
3661.104492	26.341068
3660.413086	22.858755
3659.720703	40.100273
3659.028320	40.069630
3658.336914	-29.015259
3657.644531	-4.870162
3656.952148	8.912115
3656.258789	15.787614
3655.566406	-11.843927
3654.874023	1.932030
3654.180664	8.804579
3653.488281	-8.466773
3652.794922	1.852948
3652.101562	19.064386
3651.408203	8.693205
3650.714844	12.111293
3650.021484	8.636061
3649.327148	18.943352
3648.633789	46.471333
3647.939453	18.881353
3647.246094	8.518784
3646.551758	18.818363
3645.857422	-15.639686
3645.163086	22.196415
3644.468750	46.253963
3643.774414	18.689342
3643.079102	-12.306986
3642.384766	-8.895275
3641.689453	-12.363477
3640.994141	18.556200
3640.299805	-26.173576
3639.604492	1.300182
3638.909180	-2.168502
3638.212891	14.982452
3637.517578	11.512137
3636.822266	-2.263380
3636.125977	18.313206
3635.430664	7.974750
3634.734375	31.976103
3634.038086	-16.126081
3633.341797	1.005720
3632.645508	-5.892335
3631.949219	11.231680
3631.251953	-2.528158
3630.555664	11.158854
3629.858398	14.551793
3629.162109	-6.061109
3628.464844	-2.667037
3627.767578	11.009933
3627.070312	14.399558
3626.373047	-16.482027
3625.675781	4.042514
3624.977539	24.560061
3624.280273	17.668200
3623.582031	7.353503
3622.883789	-20.079111
3622.185547	-2.995784
3621.487305	20.927870
3620.789062	0.350608
3620.090820	20.843378
3619.392578	7.115064
3618.694336	-3.188225
3617.995117	3.613002
3617.295898	30.930187
3616.597656	17.207979
3615.898438	-6.765987
3615.199219	10.284442
3614.500000	-6.846163
3613.799805	27.282907
3613.100586	3.321703
3612.400391	16.942308
3611.701172	16.897047
3611.000977	10.021973
3610.300781	37.290680
3609.600586	-10.549626
3608.900391	-3.765492
3608.200195	-0.396383
3607.500000	2.971321
3606.798828	-0.485232
3606.098633	30.167601
3605.397461	6.245350
3604.697266	-7.440157
3603.996094	19.788700
3603.294922	-10.938379
3602.593750	9.465410
3601.891602	-17.843124
3601.190430	5.961502
3600.489258	-0.899664
3599.787109	39.923092
3599.084961	2.410208
3598.383789	15.980556
3597.681641	-11.304249
3596.979492	2.263235
3596.276367	-1.189505
3595.574219	-21.654062
3594.872070	-8.092454
3594.168945	25.872938
3593.466797	2.012153
3592.763672	-4.839622
3592.060547	-18.489023
3591.357422	8.656266
3590.654297	8.603127
3589.951172	-8.440853
3589.247070	-1.696774
3588.543945	62.793854
3587.839844	11.783901
3587.136719	-18.834337
3586.432617	1.487138
3585.728516	35.380829
3585.024414	4.772688
3584.320312	-15.644752
3583.616211	18.234219
3582.911133	-22.534933
3582.207031	31.685644
3581.501953	41.799038
3580.796875	-2.345925
3580.091797	34.892017
3579.386719	4.321186
3578.681641	4.263370
3577.976562	21.148806
3577.271484	10.923144
3576.565430	4.088032
3575.860352	14.190175
3575.154297	-16.349421
3574.448242	-23.177717
3573.742188	3.849905
3573.036133	20.713858
3572.330078	-3.039606
3571.624023	3.668081
3570.917969	-13.309115
3570.210938	10.310576
3569.503906	-3.280791
3568.797852	0.039726
3568.090820	16.882744
3567.383789	6.676415
3566.676758	-0.147018
3565.969727	33.583527
3565.261719	-13.788263
3564.554688	23.311108
3563.846680	2.977289
3563.139648	6.289803
3562.431641	6.224263
3561.723633	12.910485
3561.015625	-20.911633
3560.307617	22.900497
3559.598633	2.584596
3558.890625	-0.855754
3558.181641	-11.041950
3557.473633	2.384079
3556.764648	-11.172165
3556.055664	-1.122848
3555.346680	25.778315
3554.637695	-24.852018
3553.928711	2.043591
3553.219727	25.560669
3552.509766	-4.832576
3551.799805	28.782259
3551.090820	15.236780
3550.380859	-11.773656
3549.670898	-5.108660
3548.960938	-18.643034
3548.250977	-1.882949
3547.541016	-8.683988
3546.830078	18.161785
3546.120117	7.995090
3545.409180	-5.532095
3544.698242	-5.603771
3543.987305	-5.675750
3543.276367	4.337252
3542.565430	24.430290
3541.854492	10.909838
3541.143555	20.914261
3540.431641	4.038496
3539.720703	0.604065
3539.008789	17.321167
3538.296875	30.674574
3537.584961	3.734804
3536.873047	27.155903
3536.161133	20.362532
3535.448242	-16.630627
3534.736328	13.491750
3534.023438	3.348232
3533.311523	-6.792202
3532.598633	26.666325
3531.885742	-3.593311
3531.172852	23.148245
3530.459961	-7.101592
3529.747070	26.333885
3529.033203	16.197527
3528.320312	-7.336808
3527.606445	12.682443
3526.892578	-4.146028
3526.179688	25.911491
3525.465820	-11.002740
3524.751953	2.307712
3524.037109	-1.121508
3523.323242	-14.589144
3522.609375	12.097998
3521.894531	12.013264
3521.179688	8.583428
3520.464844	-11.566865
3519.750977	21.788536
3519.036133	4.985192
3518.320312	4.900015
3517.605469	-1.869497
3516.890625	4.728991
3516.174805	-8.720970
3515.458984	-32.188156
3514.744141	-8.889429
3514.028320	4.383249
3513.312500	14.312480
3512.596680	7.546886
3511.879883	34.160191
3511.164062	-22.664536
3510.448242	3.944496
3509.731445	-6.152398
3509.014648	-2.904183
3508.297852	33.692535
3507.581055	-13.084063
3506.864258	3.498366
3506.147461	13.408366
3505.430664	13.316402
3504.712891	9.891791
3503.996094	-10.190503
3503.278320	23.032183
3502.560547	19.606750
3501.842773	-3.798403
3501.125000	-13.878024
3500.407227	-0.651653
3499.689453	-17.386017
3498.971680	-20.803562
3498.252930	-10.910906
3497.534180	28.919666
3496.816406	-37.704063
3496.097656	-17.837166
3495.378906	-21.253443
3494.660156	-1.396312
3493.940430	-4.814848
3493.221680	5.061813
3492.502930	8.288903
3491.783203	4.869569
3491.063477	-8.514758
3490.343750	11.318966
3489.624023	-8.704346
3488.904297	17.762980
3488.184570	11.023660
3487.464844	4.286247
3486.744141	0.869325
3486.024414	-2.546653
3485.303711	0.673284
3484.583008	-2.742238
3483.862305	7.109135
3483.141602	-12.886771
3482.420898	13.539646
3481.700195	23.382679
3480.978516	10.021647
3480.257812	6.606241
3479.536133	6.504815
3478.814453	3.090424
3478.092773	-0.323141
3477.371094	6.199065
3476.649414	12.718857
3475.927734	-3.937677
3475.206055	25.751217
3474.483398	-27.306934
3473.761719	-4.242349
3473.039062	-14.269662
3472.316406	-1.138977
3471.593750	-14.471377
3470.871094	21.801922
3470.148438	-1.449119
3469.424805	21.586765
3468.702148	-11.572635
3467.978516	-21.589304
3467.255859	24.566391
3466.532227	27.760691
3465.808594	-5.379234
3465.084961	24.237999
3464.360352	1.014562
3463.636719	7.510933
3462.913086	20.606577
3462.188477	3.994920
3461.464844	17.086336
3460.740234	-2.819043
3460.015625	-22.718180
3459.291016	16.755354
3458.566406	0.156610
3457.840820	-9.842979
3457.116211	-16.542915
3456.390625	-3.465175
3455.666016	-26.641657
3454.940430	2.907451
3454.214844	22.563559
3453.489258	-26.957266
3452.763672	2.576643
3452.038086	2.465949
3451.311523	15.523728
3450.585938	-10.922873
3449.859375	2.132337
3449.132812	2.020664
3448.407227	-7.961230
3447.680664	14.954892
3446.953125	21.418276
3446.226562	-8.293375
3445.500000	11.322931
3444.772461	-1.941147
3444.045898	1.233116
3443.318359	1.119686
3442.590820	20.720539
3441.863281	0.892228
3441.135742	7.347548
3440.408203	-19.040821
3439.680664	-9.301222
3438.952148	13.567071
3438.224609	3.602553
3437.496094	-22.768991
3436.767578	-9.754749
3436.039062	-6.587729
3435.310547	6.419142
3434.582031	-3.537318
3433.853516	6.185051
3433.124023	-3.768691
3432.395508	-3.884585
3431.666016	22.220722
3430.936523	22.100029
3430.207031	8.872702
3429.477539	-27.283083
3428.748047	-11.018537
3428.018555	-34.059620
3427.288086	18.219326
3426.558594	-11.367300
3425.828125	14.703203
3425.097656	14.582049
3424.367188	40.639343
3423.636719	-5.291512
3422.906250	-2.138697
3422.175781	-8.799284
3421.445312	27.054504
3420.713867	-31.923611
3419.983398	-2.616411
3419.251953	20.143694
3418.520508	6.947673
3417.789062	26.430857
3417.057617	3.436815
3416.326172	0.048731
3415.593750	26.054544
3414.862305	19.398111
3414.129883	9.478685
3413.397461	-26.552053
3412.665039	5.967834
3411.932617	-0.681855
3411.200195	-13.854941
3410.467773	8.859846
3409.735352	-1.049239
3409.001953	18.394415
3408.269531	-1.295023
3407.536133	-14.458287
3406.802734	8.236948
3406.069336	-21.218693
3405.335938	14.503529
3404.602539	-11.685957
3403.869141	-2.036171
3403.134766	14.123780
3402.401367	20.509546
3401.666992	-15.431853
3400.932617	13.742696
3400.198242	16.870041
3399.463867	0.471293
3398.729492	-12.668627
3397.994141	-3.032962
3397.259766	-38.936188
3396.524414	-26.047691
3395.790039	-3.408983
3395.054688	-29.542269
3394.319336	-3.660455
3393.583984	-3.786367
3392.848633	-7.161748
3392.112305	-20.282784
3391.376953	-7.413226
3390.640625	-17.282469
3389.905273	5.323740
3389.168945	-7.791348
3388.432617	-7.917653
3387.696289	-11.289696
3386.959961	-17.905865
3386.223633	-11.541768
3385.486328	4.552034
3384.750000	4.423079
3384.012695	-15.163904
3383.275391	0.922154
3382.538086	-2.448613
3381.800781	-9.059773
3381.063477	-12.428072
3380.326172	0.406141
3379.587891	-22.401672
3378.850586	-12.809542
3378.112305	-25.891829
3377.374023	-13.064501
3376.635742	-19.667412
3375.897461	15.814267
3375.159180	-13.447577
3374.420898	-13.575433
3373.682617	-3.996798
3372.943359	15.283420
3372.204102	34.557178
3371.465820	11.783516
3370.726562	5.184074
3369.987305	1.819549
3369.248047	-14.473356
3368.507812	-24.297552
3367.768555	-11.499514
3367.028320	10.986316
3366.289062	4.392820
3365.548828	13.949689
3364.808594	13.815825
3364.068359	16.910536
3363.328125	16.776018
3362.587891	16.641447
3361.846680	13.279624
3361.106445	-2.987092
3360.365234	-9.570772
3359.624023	9.651247
3358.882812	6.292386
3358.141602	-19.636230
3357.400391	9.249288
3356.659180	-23.118151
3355.917969	31.540722
3355.175781	18.513590
3354.433594	15.155885
3353.692383	-1.085527
3352.950195	11.664376
3352.208008	27.630173
3351.465820	-1.484233
3350.722656	1.601748
3349.980469	20.779663
3349.238281	17.424873
3348.495117	17.288479
3347.751953	-5.366883
3347.008789	10.582672
3346.265625	16.879107
3345.522461	-12.196054
3344.779297	-18.757595
3344.035156	26.112421
3343.291992	13.118962
3342.547852	0.129562
3341.804688	3.208355
3341.060547	-6.563038
3340.316406	-13.119567
3339.572266	22.071384
3338.827148	-6.962557
3338.083008	28.215721
3337.337891	-7.229012
3336.593750	-16.989403
3335.848633	-23.538246
3335.103516	1.995223
3334.358398	14.690269
3333.613281	4.932350
3332.868164	36.861286
3332.122070	14.279037
3331.376953	17.347389
3330.630859	4.390246
3329.884766	23.480650
3329.138672	4.119068
3328.392578	-2.423074
3327.646484	23.064430
3326.900391	-5.894332
3326.154297	29.190401
3325.407227	25.849327
3324.660156	-12.697805
3323.914062	-19.230934
3323.166992	9.433471
3322.419922	15.694937
3321.672852	25.152855
3320.924805	2.627310
3320.177734	37.664162
3319.429688	-0.840902
3318.682617	-0.975887
3317.934570	18.064491
3317.186523	5.144706
3316.438477	-10.965725
3315.690430	8.066870
3314.942383	11.124124
3314.193359	23.760077
3313.445312	4.464374
3312.696289	26.673973
3311.947266	-14.958030
3311.198242	-5.517316
3310.449219	16.682949
3309.700195	29.305496
3308.951172	-9.109962
3308.201172	44.970703
3307.452148	9.753880
3306.702148	38.309319
3305.952148	6.292551
3305.202148	6.156247
3304.452148	12.392934
3303.702148	18.627581
3302.952148	12.118508
3302.202148	15.166267
3301.451172	5.475407
3300.700195	53.097027
3299.949219	33.853168
3299.199219	8.250196
3298.448242	1.749195
3297.696289	17.522482
3296.945312	1.478441
3296.194336	10.885364
3295.442383	13.928693
3294.690430	39.228683
3293.938477	32.728985
3293.187500	-2.375908
3292.434570	54.695122
3291.682617	29.130775
3290.930664	13.106012
3290.177734	3.439452
3289.425781	12.832264
3288.672852	31.748291
3287.919922	60.183014
3287.166992	18.770897
3286.414062	53.546288
3285.661133	28.015919
3284.908203	40.568382
3284.154297	37.254883
3283.401367	18.083586
3282.647461	24.288866
3281.893555	5.125968
3281.139648	24.012465
3280.385742	20.704676
3279.631836	7.890390
3278.876953	10.923681
3278.123047	32.965183
3277.368164	29.658176
3276.614258	45.355202
3275.859375	29.380964
3275.104492	51.404999
3274.349609	10.110677
3273.593750	44.790771
3272.838867	54.143528
3272.083984	16.033340
3271.328125	38.041630
3270.572266	50.553894
3269.816406	25.112919
3269.060547	18.651873
3268.304688	65.936653
3267.548828	49.988556
3266.791992	46.687019
3266.036133	56.026115
3265.279297	55.884155
3264.522461	84.171394
3263.766602	65.075546
3263.009766	61.774658
3262.251953	33.216999
3261.495117	55.176254
3260.738281	67.659828
3259.980469	73.827881
3259.222656	54.752834
3258.465820	4.138050
3257.708008	32.392551
3256.950195	13.334036
3256.191406	32.118565
3255.433594	66.659874
3254.675781	69.669617
3253.916992	85.284370
3253.158203	34.723301
3252.400391	66.091339
3251.641602	81.699257
3250.882812	37.462955
3250.123047	62.517262
3249.364258	43.486046
3248.605469	68.531456
3247.845703	52.652958
3247.085938	74.541840
3246.326172	64.960449
3245.566406	33.361744
3244.806641	80.405571
3244.046875	48.814964
3243.287109	51.821564
3242.526367	114.557922
3241.766602	16.970327
3241.005859	107.976173
3240.245117	63.838844
3239.484375	98.257469
3238.723633	66.701088
3237.962891	116.811218
3237.201172	94.682571
3236.440430	75.701073
3235.678711	69.282089
3234.916992	81.696587
3234.155273	78.417023
3233.393555	78.276169
3232.631836	68.724525
3231.870117	84.267952
3231.108398	96.670433
3230.345703	93.391632
3229.583008	90.114059
3228.820312	93.106514
3228.058594	105.499931
3227.294922	80.288673
3226.532227	83.281700
3225.769531	92.538559
3225.006836	104.924316
3224.243164	95.386894
3223.479492	67.068047
3222.715820	91.973289
3221.952148	113.740707
3221.188477	72.916351
3220.424805	122.838516
3219.661133	85.154663
3218.896484	125.675461
3218.132812	94.258209
3217.368164	100.371223
3216.603516	93.977829
3215.838867	103.214828
3215.074219	156.200424
3214.309570	106.057205
3213.543945	134.032425
3212.779297	155.751633
3212.013672	133.741058
3211.248047	146.085739
3210.482422	127.206375
3209.716797	139.548386
3208.951172	136.281570
3208.185547	148.618378
3207.419922	157.831299
3206.653320	117.130241
3205.886719	194.961823
3205.120117	132.439575
3204.354492	122.942451
3203.586914	150.856903
3202.820312	135.126373
3202.053711	153.681030
3201.286133	172.229630
3200.519531	181.426468
3199.751953	224.883133
3198.984375	190.468414
3198.216797	140.496384
3197.449219	155.919495
3196.681641	165.112213
3195.914062	236.546738
3195.145508	195.935867
3194.377930	189.561981
3193.609375	176.968872
3192.840820	179.931000
3192.072266	235.756607
3191.303711	192.071198
3190.534180	176.378021
3189.765625	210.420288
3188.996094	235.128525
3188.227539	207.008377
3187.458008	256.562073
3186.688477	206.705460
3185.918945	194.132126
3185.149414	187.773285
3184.379883	218.671036
3183.609375	175.062347
3182.838867	246.297806
3182.069336	243.038345
3181.298828	211.857727
3180.528320	252.032791
3179.757812	236.368698
3178.987305	270.324951
3178.215820	242.261597
3177.445312	316.504944
3176.673828	260.549042
3175.902344	303.776276
3175.130859	291.218658
3174.359375	235.295349
3173.587891	225.850998
3172.816406	269.056213
3172.044922	299.862061
3171.272461	262.549927
3170.500000	308.823456
3169.728516	317.944580
3168.956055	268.271484
3168.183594	249.552704
3167.410156	274.145813
3166.637695	317.287567
3165.865234	320.216248
3165.091797	292.226898
3164.318359	319.888763
3163.545898	319.725525
3162.772461	288.660645
3161.998047	344.117004
3161.224609	325.415466
3160.451172	362.316040
3159.676758	328.177277
3158.903320	392.854370
3158.128906	398.854858
3157.354492	377.074127
3156.580078	383.075745
3155.805664	392.161163
3155.031250	398.158722
3154.255859	327.040253
3153.481445	410.148499
3152.706055	443.892639
3151.930664	412.882050
3151.155273	425.037354
3150.379883	452.598907
3149.604492	403.113953
3148.829102	412.184570
3148.052734	445.896179
3147.276367	461.116974
3146.500977	460.935760
3145.724609	423.807281
3144.948242	432.868042
3144.171875	451.159790
3143.394531	429.439117
3142.618164	509.264282
3141.841797	441.395660
3141.064453	465.826599
3140.287109	496.400452
3139.509766	477.766357
3138.732422	529.849182
3137.955078	501.994629
3137.177734	514.103088
3136.399414	492.406464
3135.622070	504.513000
3134.843750	525.831177
3134.065430	525.643311
3133.287109	482.464417
3132.508789	476.143707
3131.730469	528.151367
3130.951172	549.449097
3130.172852	546.189941
3129.393555	576.682922
3128.614258	533.539917
3127.835938	560.958252
3127.055664	579.167358
3126.276367	526.847412
3125.497070	548.122437
3124.717773	514.216736
3123.937500	541.616699
3123.157227	532.237305
3122.377930	538.179932
3121.597656	559.436584
3120.816406	546.996948
3120.036133	525.375305
3119.255859	558.871033
3118.474609	543.377258
3117.694336	475.857910
3116.913086	539.947266
3116.131836	527.524780
3115.350586	576.289246
3114.569336	508.810181
3113.788086	572.852661
3113.005859	511.512115
3112.224609	541.905334
3111.442383	520.326538
3110.660156	559.876953
3109.877930	550.525146
3109.095703	501.460754
3108.313477	534.886292
3107.531250	513.327820
3106.748047	589.490479
3105.965820	574.036804
3105.182617	576.903564
3104.399414	561.457520
3103.616211	527.707703
3102.833008	554.989807
3102.048828	634.121826
3101.265625	548.527283
3100.482422	557.496094
3099.698242	587.805115
3098.914062	578.473938
3098.129883	526.474304
3097.345703	581.154053
3096.561523	590.111328
3095.776367	580.786926
3094.992188	571.465942
3094.207031	626.103027
3093.422852	638.092896
3092.637695	613.545532
3091.852539	576.830811
3091.067383	582.736694
3090.281250	591.683838
3089.496094	609.755554
3088.709961	588.276428
3087.924805	606.343323
3087.138672	657.854492
3086.352539	663.742615
3085.566406	645.309753
3084.780273	642.080383
3083.993164	547.685242
3083.207031	608.279907
3082.419922	617.210632
3081.633789	638.288147
3080.846680	625.953247
3080.059570	692.568481
3079.271484	613.439880
3078.484375	628.434326
3077.697266	603.970825
3076.909180	600.756226
3076.122070	588.441406
3075.333984	621.631226
3074.545898	621.448975
3073.757812	639.461060
3072.968750	566.512085
3072.180664	702.750183
3071.392578	699.524780
3070.603516	587.208618
3069.814453	620.361938
3069.025391	571.712585
3068.236328	604.858093
3067.447266	619.822815
3066.658203	577.254272
3065.868164	664.874817
3065.079102	595.072083
3064.289062	558.582275
3063.499023	543.285522
3062.708984	512.867615
3061.918945	564.129761
3061.128906	618.399475
3060.338867	503.318695
3059.547852	542.464417
3058.757812	581.597534
3057.966797	520.982178
3057.175781	532.910278
3056.384766	511.600464
3055.593750	535.609802
3054.801758	502.225983
3054.010742	462.814056
3053.218750	477.762421
3052.427734	471.574768
3051.635742	450.298004
3050.843750	459.206360
3050.051758	434.921967
3049.258789	434.780060
3048.466797	449.719910
3047.674805	458.623474
3046.881836	458.478607
3046.088867	407.082947
3045.295898	422.018494
3044.502930	430.921844
3043.709961	448.862335
3042.916992	433.656677
3042.123047	433.517639
3041.330078	370.132019
3040.536133	400.116760
3039.742188	372.887329
3038.948242	369.749359
3038.154297	396.710327
3037.360352	447.736572
3036.565430	399.457153
3035.771484	336.152771
3034.976562	336.032623
3034.181641	402.072418
3033.386719	368.867523
3032.591797	296.592651
3031.796875	296.480255
3031.000977	338.441711
3030.206055	350.341980
3029.410156	302.153351
3028.615234	350.101318
3027.819336	325.955383
3027.023438	250.770889
3026.226562	328.726807
3025.430664	274.579712
3024.634766	274.473541
3023.837891	343.385193
3023.041016	316.265808
3022.245117	310.154083
3021.448242	292.047607
3020.650391	303.934967
3019.853516	294.830872
3019.056641	306.714447
3018.258789	270.638000
3017.461914	264.541595
3016.664062	282.417572
3015.866211	255.351318
3015.068359	267.232880
3014.270508	276.115997
3013.471680	255.053635
3012.673828	251.961243
3011.875000	197.984406
3011.076172	221.838058
3010.277344	230.722610
3009.478516	218.662033
3008.679688	197.631882
3007.880859	221.470779
3007.082031	239.321457
3006.282227	251.186844
3005.482422	185.326889
3004.682617	209.153015
3003.882812	212.053406
3003.083008	241.843277
3002.283203	211.877441
3001.483398	175.948257
3000.682617	199.757401
2999.881836	217.587265
2999.082031	187.646469
2998.281250	127.867729
2997.480469	190.466217
2996.678711	169.497101
2995.877930	184.335144
2995.077148	178.288727
2994.275391	184.173859
2993.473633	163.220779
2992.671875	148.237640
2991.870117	180.953171
2991.068359	160.011871
2990.266602	150.997208
2989.463867	198.593430
2988.662109	162.766174
2987.859375	204.388351
2987.056641	123.904633
2986.253906	186.361496
2985.451172	186.283554
2984.648438	153.465775
2983.844727	162.321457
2983.041992	147.371414
2982.238281	159.200531
2981.434570	191.846649
2980.630859	191.769348
2979.827148	188.718933
2979.023438	212.425842
2978.219727	197.483856
2977.415039	188.490891
2976.611328	256.757935
2975.806641	218.049377
2975.001953	206.087769
2974.197266	217.889832
2973.392578	235.627045
2972.586914	297.892639
2971.782227	345.295471
2970.976562	371.907166
2970.171875	428.184692
2969.366211	564.551514
2968.560547	662.309082
2967.754883	792.659912
2966.948242	1127.585205
2966.142578	1411.994263
2965.335938	1889.000244
2964.530273	2383.631104
2963.723633	2990.709961
2962.916992	3212.396240
2962.110352	3051.845215
2961.303711	2752.133545
2960.496094	2348.868408
2959.689453	1821.375366
2958.881836	1474.650635
2958.074219	1255.323364
2957.266602	962.080994
2956.458984	816.888977
2955.651367	674.704224
2954.843750	553.273621
2954.035156	502.865234
2953.226562	449.516846
2952.418945	408.012817
2951.610352	387.215485
2950.801758	357.558472
2949.993164	357.462555
2949.183594	271.683258
2948.375000	256.831573
2947.565430	256.753113
2946.755859	236.002975
2945.947266	227.070557
2945.137695	203.380600
2944.327148	229.876755
2943.517578	220.950424
2942.708008	188.421921
2941.897461	167.705215
2941.086914	194.190430
2940.277344	176.429230
2939.466797	176.366318
2938.655273	129.132370
2937.844727	164.450272
2937.034180	131.970551
2936.222656	131.915878
2935.412109	140.700089
2934.600586	173.047485
2933.789062	146.479279
2932.977539	137.588699
2932.166016	105.147133
2931.353516	113.929428
2930.541992	78.559746
2929.729492	131.485718
2928.916992	90.240700
2928.104492	110.787560
2927.291992	125.445076
2926.479492	119.512115
2925.666992	110.641014
2924.853516	92.953506
2924.041016	98.786880
2923.227539	119.312752
2922.414062	142.770294
2921.600586	95.711197
2920.787109	139.726852
2919.972656	107.368797
2919.159180	86.767288
2918.344727	101.403778
2917.531250	130.712616
2916.716797	127.727615
2915.902344	98.333824
2915.087891	130.562912
2914.272461	121.712990
2913.458008	136.329910
2912.642578	130.414749
2911.828125	130.365707
2911.012695	130.316818
2910.197266	212.336273
2909.381836	139.011093
2908.565430	185.841614
2907.750000	197.502213
2906.933594	191.584778
2906.118164	194.455124
2905.301758	264.670166
2904.485352	200.193329
2903.668945	217.696640
2902.852539	252.753799
2902.035156	235.129410
2901.218750	258.469727
2900.401367	243.775665
2899.583984	249.559128
2898.766602	205.630219
2897.949219	217.265686
2897.131836	190.896149
2896.314453	179.148956
2895.496094	179.094635
2894.677734	214.100845
2893.860352	199.434830
2893.041992	158.487259
2892.223633	178.878510
2891.404297	196.343323
2890.585938	161.255676
2889.767578	181.636581
2888.948242	169.909607
2888.128906	184.446869
2887.309570	193.144714
2886.490234	178.505234
2885.670898	169.703384
2884.851562	225.053131
2884.031250	163.770218
2883.211914	146.230957
2882.391602	137.440750
2881.571289	157.792526
2880.750977	143.176743
2879.930664	96.523857
2879.109375	81.923378
2878.289062	81.887589
2877.467773	96.409149
2876.647461	81.816269
2875.826172	49.765507
2875.004883	84.655319
2874.183594	52.614964
2873.361328	61.311630
2872.540039	75.822517
2871.717773	40.891918
2870.895508	52.493954
2870.074219	52.463898
2869.251953	32.087868
2868.428711	66.934494
2867.606445	66.902222
2866.784180	43.629074
2865.960938	55.219376
2865.137695	52.285118
2864.315430	63.870197
2863.492188	52.226063
2862.667969	17.364399
2861.844727	23.145271
2861.021484	14.415666
2860.197266	14.392735
2859.373047	31.774288
2858.549805	31.748533
2857.725586	-0.174634
2856.901367	11.402195
2856.076172	-6.012796
2855.251953	37.442619
2854.426758	14.233515
2853.602539	-20.557138
2852.777344	25.775814
2851.952148	22.854998
2851.126953	17.039310
2850.300781	-3.251397
2849.475586	14.098570
2848.649414	25.653887
2847.824219	22.735645
2846.998047	-6.222703
2846.171875	8.223216
2845.345703	22.664312
2844.519531	5.288569
2843.692383	2.376253
2842.866211	16.811075
2842.039062	-20.788744
2841.211914	-0.574749
2840.384766	10.963741
2839.557617	2.274722
2838.730469	13.808860
2837.903320	5.122258
2837.075195	10.876740
2836.247070	31.065067
2835.419922	-15.146802
2834.591797	5.039088
2833.762695	-3.638833
2832.934570	-6.543431
2832.106445	10.746057
2831.277344	22.261221
2830.449219	10.702363
2829.620117	-6.619195
2828.791016	45.252136
2827.961914	1.989721
2827.132812	13.496531
2826.302734	36.524822
2825.473633	-15.357067
2824.643555	13.429007
2823.813477	16.286327
2822.983398	24.901461
2822.153320	-3.912423
2821.323242	36.365990
2820.492188	19.071606
2819.662109	19.047834
2818.831055	13.270033
2818.000977	-32.777077
2817.169922	18.976208
2816.337891	1.698946
2815.506836	10.302977
2814.675781	-18.465481
2813.843750	4.509390
2813.012695	10.234795
2812.180664	21.704453
2811.348633	-1.301612
2810.516602	27.398972
2809.684570	41.731400
2808.851562	-12.849916
2808.019531	18.708616
2807.186523	21.554068
2806.353516	-4.299088
2805.520508	7.156913
2804.687500	7.133785
2803.854492	32.925362
2803.020508	4.219440
2802.187500	21.400587
2801.353516	7.040358
2800.519531	9.883131
2799.686523	18.456627
2798.851562	38.488819
2798.017578	32.729710
2797.183594	12.650128
2796.348633	18.352961
2795.514648	35.507713
2794.679688	75.560677
2793.844727	23.999050
2793.009766	35.419708
2792.173828	64.005821
2791.338867	104.026527
2790.502930	81.100273
2789.667969	135.404999
2788.832031	118.200203
2787.996094	89.564346
2787.160156	103.818230
2786.324219	86.626953
2785.487305	63.725838
2784.651367	83.690903
2783.814453	75.081467
2782.977539	60.762192
2782.140625	49.303383
2781.303711	23.571646
2780.466797	17.832281
2779.628906	43.492619
2778.791992	0.651051
2777.954102	20.598494
2777.116211	20.568617
2776.278320	29.095877
2775.440430	3.396576
2774.602539	-2.333927
2773.763672	14.745335
2772.925781	-10.939169
2772.086914	23.235632
2771.248047	6.106636
2770.409180	8.926771
2769.570312	6.048558
2768.731445	-16.765768
2767.891602	34.466133
2767.052734	-13.970198
2766.212891	3.083327
2765.373047	8.746062
2764.533203	28.635315
2763.693359	-16.923065
2762.853516	2.963376
2762.012695	8.621426
2761.172852	5.745918
2760.332031	-25.562193
2759.491211	2.839946
2758.650391	-14.245739
2757.809570	-22.800209
2756.968750	-14.303521
2756.126953	-0.128079
2755.286133	22.563747
2754.444336	31.047756
2753.602539	-3.063939
2752.760742	-3.096080
2751.918945	5.387185
2751.076172	-28.703743
2750.234375	10.993979
2749.391602	10.958444
2748.549805	-23.116991
2747.707031	-3.294203
2746.864258	2.343238
2746.020508	2.308067
2745.177734	2.272649
2744.334961	19.242451
2743.491211	24.871159
2742.647461	2.164732
2741.803711	-3.537429
2740.959961	7.756066
2740.116211	-14.936887
2739.271484	10.511047
2738.427734	-31.991684
2737.583008	-20.702215
2736.739258	10.392842
2735.894531	30.159184
2735.048828	-40.609489
2734.204102	-3.870706
2733.359375	1.746861
2732.513672	-9.603215
2731.668945	10.148248
2730.823242	-37.946102
2729.977539	-6.892627
2729.131836	7.196059
2728.285156	18.454460
2727.439453	-7.012513
2726.592773	7.068046
2725.747070	-24.036621
2724.900391	12.627629
2724.053711	9.759872
2723.207031	-18.508249
2722.359375	9.669889
2721.512695	3.981645
2720.665039	12.399446
2719.818359	17.993645
2718.970703	9.485800
2718.123047	12.258374
2717.275391	3.753628
2716.426758	3.706931
2715.579102	3.659893
2714.730469	-2.022668
2713.882812	-2.069480
2713.034180	-2.116690
2712.185547	-2.164275
2711.335938	-7.843596
2710.487305	0.554624
2709.638672	8.949608
2708.789062	-13.615400
2707.939453	-5.221692
2707.089844	-19.337606
2706.240234	0.304738
2705.390625	-2.558777
2704.541016	0.202034
2703.690430	-11.095540
2702.839844	0.097676
2701.990234	-30.870037
2701.139648	-5.628214
2700.289062	8.366644
2699.437500	25.165344
2698.586914	2.638220
2697.735352	-17.073685
2696.884766	-3.088073
2696.033203	8.085203
2695.181641	8.027629
2694.330078	-0.448912
2693.477539	24.745434
2692.625977	-3.368635
2691.773438	2.183460
2690.921875	16.146116
2690.069336	-25.972752
2689.216797	13.219060
2688.364258	21.565603
2687.510742	-0.917509
2686.658203	-6.581946
2685.804688	-15.046428
2684.952148	35.311989
2684.098633	24.041819
2683.245117	4.374894
2682.390625	-9.686799
2681.537109	4.246623
2680.683594	1.383199
2679.829102	9.712749
2678.974609	15.241313
2678.120117	15.173126
2677.265625	-1.675851
2676.411133	-10.130908
2675.556641	-12.992064
2674.701172	0.918989
2673.845703	20.414474
2672.991211	-13.189870
2672.135742	11.888142
2671.279297	-18.911125
2670.423828	34.087719
2669.568359	6.086570
2668.711914	-21.905712
2667.855469	-8.016200
2667.000000	-24.833437
2666.143555	0.213085
2665.286133	5.719815
2664.429688	19.593077
2663.573242	2.780308
2662.715820	-2.872631
2661.858398	-2.947767
2661.000977	-5.811175
2660.143555	5.262194
2659.286133	24.691679
2658.428711	-3.253663
2657.570312	7.811893
2656.712891	30.014774
2655.854492	18.790455
2654.996094	-17.490713
2654.137695	-23.136406
2653.279297	-20.430260
2652.419922	-37.206932
2651.561523	7.237998
2650.702148	-6.756761
2649.842773	-12.402529
2648.983398	-12.484663
2648.124023	1.336053
2647.264648	12.371262
2646.404297	17.842571
2645.544922	-1.701954
2644.684570	14.883874
2643.824219	12.015147
2642.963867	0.813186
2642.103516	9.056139
2641.243164	3.411073
2640.381836	-7.785691
2639.521484	-7.875306
2638.660156	30.891562
2637.798828	-2.506396
2636.937500	-22.020824
2636.076172	19.500921
2635.213867	-8.332886
2634.352539	2.666413
2633.490234	-33.474499
2632.627930	-14.159372
2631.765625	-28.112482
2630.903320	-30.976395
2630.041016	-14.444302
2629.178711	7.622236
2628.315430	10.291400
2627.452148	32.344841
2626.588867	26.700754
2625.725586	-3.858316
2624.862305	7.112299
2623.999023	-26.201992
2623.134766	-12.465725
2622.271484	-15.334260
2621.407227	9.458645
2620.542969	-23.836317
2619.678711	12.008986
2618.814453	-15.747086
2617.950195	28.376041
2617.084961	8.916450
2616.219727	-7.773951
2615.355469	28.034760
2614.490234	-5.228913
2613.624023	11.232238
2612.758789	2.834216
2611.893555	-2.800698
2611.027344	-8.434538
2610.162109	8.013210
2609.295898	-8.660272
2608.429688	2.262167
2607.562500	21.455959
2606.696289	-33.827850
2605.830078	1.910360
2604.962891	51.421768
2604.095703	4.428937
2603.228516	-17.742050
2602.361328	-9.592158
2601.494141	23.352440
2600.626953	-7.077415
2599.758789	25.853960
2598.891602	0.940387
2598.023438	17.336754
2597.155273	-7.568577
2596.287109	14.327255
2595.417969	-2.314503
2594.549805	-29.957773
2593.680664	8.435212
2592.812500	-5.448631
2591.943359	8.173593
2591.074219	-8.456930
2590.205078	-3.088281
2589.334961	-0.471174
2588.465820	-8.849073
2587.595703	-8.981375
2586.725586	-9.114438
2585.855469	9.980450
2584.985352	9.842592
2584.115234	20.688084
2583.245117	-20.636555
2582.374023	-4.301138
2581.502930	23.006433
2580.632812	3.653288
2579.761719	3.511624
2578.889648	3.369048
2578.018555	-5.002471
2577.147461	-18.856573
2576.275391	-10.772264
2575.403320	-8.174282
2574.531250	-2.837120
2573.659180	51.825264
2572.787109	5.089281
2571.915039	-27.934155
2571.041992	-11.644611
2570.169922	18.331549
2569.296875	15.439225
2568.423828	-3.878867
2567.550781	1.443371
2566.677734	-9.657341
2565.803711	9.343450
2564.930664	6.450771
2564.056641	17.234678
2563.182617	0.665464
2562.308594	25.116892
2561.434570	-2.385482
2560.559570	24.789707
2559.685547	41.022926
2558.810547	29.924259
2557.935547	7.900190
2557.061523	24.125341
2556.185547	10.301218
2555.310547	-0.788262
2554.435547	39.999157
2553.559570	31.636189
2552.684570	-4.017546
2551.808594	-26.016104
2550.932617	-20.724546
2550.056641	-7.252011
2549.179688	-18.331995
2548.303711	0.587654
2547.426758	11.320287
2546.549805	27.500414
2545.672852	-5.386230
2544.795898	38.040493
2543.918945	-8.461867
2543.041992	7.706909
2542.164062	26.592794
2541.287109	-11.716918
2540.409180	23.500746
2539.531250	-22.964470
2538.653320	-12.255583
2537.774414	14.776978
2536.896484	17.311079
2536.017578	-1.920642
2535.138672	8.773406
2534.260742	-2.293400
2533.380859	32.866795
2532.501953	29.953438
2531.623047	5.294790
2530.743164	-3.050414
2529.864258	18.496109
2528.984375	50.901253
2528.104492	9.953829
2527.224609	-1.106219
2526.343750	-1.302105
2525.463867	-12.358449
2524.583008	-23.412178
2523.703125	19.817156
2522.822266	19.613890
2521.941406	27.548964
2521.059570	30.054907
2520.178711	-10.835350
2519.297852	-5.613838
2518.416016	21.294579
2517.534180	10.242007
2516.652344	4.612828
2515.770508	-1.015461
2514.888672	12.322898
2514.005859	12.110843
2513.124023	9.189607
2512.241211	0.852120
2511.358398	22.299435
2510.475586	19.374689
2509.592773	-2.496447
2508.708984	2.700242
2507.826172	13.305755
2506.942383	4.969732
2506.058594	-27.707478
2505.174805	12.641967
2504.291016	-20.027498
2503.407227	4.084451
2502.522461	30.889858
2501.638672	19.850651
2500.753906	27.728058
2499.869141	35.601730
2498.984375	38.069469
2498.099609	18.930262
2497.214844	40.299107
2496.329102	23.863438
2495.443359	18.229303
2494.557617	-6.295510
2493.671875	15.058602
2492.786133	33.706512
2491.900391	19.978050
2491.014648	41.313583
2490.127930	22.193155
2489.241211	21.950392
2488.354492	10.924358
2487.467773	10.681446
2486.581055	-3.035718
2485.694336	15.581032
2484.806641	31.496393
2483.918945	12.392653
2483.032227	44.458096
2482.144531	30.741194
2481.255859	6.260057
2480.368164	38.306622
2479.480469	21.903536
2478.591797	48.553024
2477.703125	24.081152
2476.814453	37.270981
2475.925781	-3.327687
2475.037109	17.926157
2474.148438	20.354057
2473.258789	22.779768
2472.369141	19.828920
2471.479492	24.938522
2470.589844	3.181342
2469.700195	10.975744
2468.810547	10.709942
2467.919922	13.127879
2467.030273	31.651468
2466.139648	28.694548
2465.249023	-9.149825
2464.358398	-12.101010
2463.467773	30.554005
2462.576172	6.136379
2461.685547	43.407856
2460.793945	10.950041
2459.902344	-8.093338
2459.010742	15.755608
2458.119141	2.075582
2457.226562	31.271158
2456.334961	-9.199755
2455.442383	22.664082
2454.549805	-4.403372
2453.657227	3.347257
2452.764648	27.157497
2451.872070	5.453255
2450.978516	23.899775
2450.085938	20.932230
2449.192383	-6.114386
2448.298828	36.395737
2447.405273	4.004422
2446.511719	30.451763
2445.618164	8.764509
2444.723633	13.814427
2443.829102	-2.519856
2442.934570	-0.144287
2442.040039	18.259829
2441.145508	12.614821
2440.250977	49.703972
2439.355469	-22.706627
2438.460938	33.063007
2437.565430	38.092213
2436.669922	3.083354
2435.774414	26.793493
2434.878906	21.145267
2433.982422	23.500408
2433.086914	31.188234
2432.190430	49.538876
2431.293945	25.221653
2430.397461	-12.417545
2429.500977	5.927583
2428.603516	16.270205
2427.707031	42.595123
2426.809570	4.973623
2425.912109	-16.654949
2425.014648	9.658198
2424.117188	-1.315664
2423.219727	32.970001
2422.321289	6.022874
2421.423828	13.680515
2420.525391	23.994825
2419.626953	-2.940542
2418.728516	41.949348
2417.830078	1.720499
2416.930664	49.250496
2416.032227	-6.919454
2415.132812	6.038322
2414.233398	29.620943
2413.333984	15.993905
2412.434570	10.340482
2411.535156	7.344022
2410.634766	17.626081
2409.734375	-35.825020
2408.834961	-1.647133
2407.934570	8.627521
2407.033203	18.897100
2406.132812	-2.680099
2405.232422	31.463503
2404.331055	25.804497
2403.429688	25.450531
2402.528320	-27.938845
2401.626953	-1.773317
2400.725586	-2.126050
2399.824219	37.275433
2398.921875	7.764414
2398.019531	10.055643
2397.117188	-8.847081
2396.214844	-1.259175
2395.312500	19.565319
2394.410156	0.666974
2393.506836	5.598124
2392.604492	-23.880728
2391.701172	12.805727
2390.797852	28.311821
2389.894531	6.776255
2388.990234	14.340500
2388.086914	40.412487
2387.182617	29.457861
2386.278320	0.000867
2385.374023	12.842329
2384.469727	15.107553
2383.565430	12.086363
2382.661133	48.691101
2381.755859	13.966878
2380.850586	-15.465023
2379.945312	2.638819
2379.040039	47.134499
2378.134766	15.068834
2377.229492	1.486086
2376.323242	1.099243
2375.417969	5.987885
2374.511719	0.322568
2373.605469	-2.704865
2372.699219	-13.642783
2371.791992	25.511330
2370.885742	19.841537
2369.978516	-1.640402
2369.071289	8.503228
2368.164062	23.911146
2367.256836	-0.198263
2366.349609	4.668957
2365.442383	-11.531946
2364.534180	32.823097
2363.625977	3.458787
2362.717773	45.161728
2361.809570	-18.404600
2360.901367	25.916164
2359.993164	33.394314
2359.083984	17.198332
2358.174805	-6.881967
2357.265625	-17.809826
2356.356445	26.466131
2355.447266	23.418320
2354.538086	22.998032
2353.627930	6.812542
2352.718750	3.765894
2351.808594	5.971377
2350.898438	-10.206649
2349.988281	39.256554
2349.077148	9.950289
2348.166992	6.898993
2347.255859	16.967712
2346.344727	8.665969
2345.433594	34.467735
2344.522461	-2.687204
2343.611328	-3.118119
2342.700195	4.315478
2341.788086	19.609119
2340.875977	-1.797412
2339.963867	10.868973
2339.051758	-7.911150
2338.139648	38.804497
2337.227539	14.785151
2336.314453	-14.465080
2335.401367	40.078232
2334.488281	29.155918
2333.575195	2.531879
2332.662109	33.488052
2331.749023	1.636900
2330.834961	-11.892808
2329.921875	5.968225
2329.007812	21.206276
2328.093750	10.291066
2327.179688	12.449466
2326.264648	-1.077254
2325.350586	-25.053450
2324.435547	-12.442791
2323.520508	36.736305
2322.605469	31.045605
2321.690430	1.851798
2320.775391	6.610861
2319.859375	19.198473
2318.944336	3.068892
2318.028320	2.601584
2317.112305	12.570318
2316.196289	-21.815920
2315.280273	27.276960
2314.363281	11.152627
2313.447266	-59.724365
2312.530273	-8.047484
2311.613281	-5.915012
2310.696289	4.033926
2309.779297	-9.473146
2308.861328	10.891018
2307.944336	-23.453548
2307.026367	-8.305235
2306.108398	25.063982
2305.190430	11.558170
2304.272461	-4.547293
2303.354492	5.377203
2302.435547	12.694433
2301.516602	14.804578
2300.597656	24.716364
2299.678711	13.817307
2298.759766	2.920731
2297.840820	33.624752
2296.920898	20.126125
2296.001953	37.819183
2295.082031	6.132184
2294.162109	26.416662
2293.242188	23.314117
2292.322266	-10.954959
2291.401367	4.124265
2290.480469	-6.765975
2289.560547	-7.269810
2288.639648	12.988078
2287.718750	20.262911
2286.796875	6.777418
2285.875977	24.424616
2284.954102	18.721397
2284.032227	13.018910
2283.111328	22.874018
2282.188477	-3.568458
2281.266602	24.425968
2280.344727	8.355928
2279.421875	23.380972
2278.499023	-5.638841
2277.577148	-0.978729
2276.653320	26.983999
2275.730469	-25.327570
2274.807617	23.337437
2273.883789	4.689019
2272.960938	22.275774
2272.037109	-6.717998
2271.113281	-4.659873
2270.188477	7.741734
2269.264648	30.482527
2268.339844	-42.453167
2267.416016	3.552289
2266.491211	-15.077359
2265.566406	2.477740
2264.641602	1.938935
2263.715820	19.482096
2262.791016	24.103933
2261.865234	10.645141
2260.939453	30.756115
2260.013672	4.390440
2259.087891	-1.318245
2258.162109	11.038692
2257.235352	36.290859
2256.309570	-39.078682
2255.382812	9.385215
2254.456055	-27.272930
2253.529297	5.699010
2252.601562	-2.590568
2251.674805	9.742694
2250.747070	32.378513
2249.819336	-22.295368
2248.891602	8.064501
2247.963867	40.988514
2247.036133	40.420311
2246.108398	19.251829
2245.179688	-4.485552
2244.250977	25.838566
2243.322266	4.679445
2242.393555	-1.034750
2241.464844	3.542601
2240.535156	10.688875
2239.606445	10.116659
2238.676758	-21.313419
2237.747070	11.539083
2236.817383	16.103859
2235.887695	18.095873
2234.957031	-28.736647
2234.027344	-8.755960
2233.096680	78.002251
2232.166016	18.338856
2231.235352	-2.787942
2230.304688	-18.773863
2229.373047	-3.952934
2228.442383	36.527107
2227.510742	5.142402
2226.579102	-0.576700
2225.647461	6.530785
2224.715820	5.940536
2223.783203	13.041575
2222.851562	-0.371015
2221.918945	4.162967
2220.986328	3.568377
2220.053711	20.910311
2219.121094	10.062521
2218.187500	17.148064
2217.254883	16.547052
2216.321289	-37.830612
2215.387695	-20.502762
2214.454102	40.335209
2213.520508	19.250343
2212.585938	-24.859524
2211.652344	20.593222
2210.717773	19.983313
2209.783203	-8.761429
2208.848633	-4.253910
2207.914062	-9.976064
2206.979492	7.309356
2206.043945	-29.085945
2205.108398	-6.695166
2204.172852	8.021830
2203.237305	-2.812703
2202.301758	-36.631409
2201.366211	1.062693
2200.429688	10.656772
2199.494141	7.483190
2198.557617	17.070641
2197.621094	-24.384020
2196.683594	33.680290
2195.747070	-28.173101
2194.809570	34.970726
2193.873047	11.388169
2192.935547	8.209482
2191.998047	-20.461527
2191.060547	-23.635717
2190.122070	19.059877
2189.184570	26.069452
2188.246094	2.505246
2187.307617	-8.316710
2186.369141	11.423138
2185.430664	13.332030
2184.492188	7.602081
2183.552734	22.234575
2182.613281	47.040306
2181.673828	0.593491
2180.734375	-20.398802
2179.794922	-23.580305
2178.855469	8.841216
2177.915039	53.962997
2176.975586	48.224949
2176.035156	-23.598143
2175.094727	-1.369068
2174.154297	-14.720820
2173.212891	-0.124899
2172.272461	-16.014301
2171.331055	23.970217
2170.389648	23.314165
2169.448242	-0.190701
2168.506836	-33.841347
2167.565430	13.727896
2166.623047	7.994707
2165.680664	2.262476
2164.738281	16.823048
2163.795898	-14.271024
2162.853516	30.712473
2161.911133	24.976334
2160.967773	-11.175993
2160.025391	38.849159
2159.082031	17.907995
2158.138672	7.106701
2157.194336	6.439373
2156.250977	20.967058
2155.307617	12.700025
2154.363281	-10.755605
2153.418945	26.544806
2152.474609	-7.030060
2151.530273	47.967102
2150.584961	42.226387
2149.640625	16.251766
2148.695312	-7.186431
2147.750000	12.368249
2146.804688	1.577644
2145.859375	-9.210159
2144.913086	17.913017
2143.967773	-10.563443
2143.021484	29.180590
2142.075195	13.339245
2141.128906	-20.176008
2140.182617	17.021191
2139.236328	31.482965
2138.289062	13.123747
2137.341797	14.959991
2136.394531	31.934540
2135.447266	-21.738152
2134.500000	40.638939
2133.552734	4.635550
2132.604492	11.509672
2131.656250	-26.999701
2130.708984	22.728083
2129.759766	14.470705
2128.811523	-3.863291
2127.863281	-29.749924
2126.914062	-0.212456
2125.964844	14.202924
2125.016602	43.721455
2124.066406	22.875046
2123.117188	-5.515876
2122.167969	-8.730287
2121.217773	45.930168
2120.267578	-12.643685
2119.317383	-25.920103
2118.367188	26.197351
2117.416992	12.917152
2116.466797	47.409195
2115.515625	6.476986
2114.564453	-31.928610
2113.613281	35.216854
2112.662109	-3.182014
2111.710938	18.718447
2110.758789	53.167397
2109.807617	-15.349890
2108.855469	21.602036
2107.903320	-36.847378
2106.951172	-12.454961
2105.999023	29.493526
2105.045898	23.757000
2104.092773	-9.571397
2103.140625	47.400547
2102.187500	19.093281
2101.234375	10.852329
2100.280273	-27.467812
2099.327148	31.970234
2098.373047	-1.330082
2097.418945	30.521107
2096.464844	-2.768858
2095.510742	-31.038900
2094.556641	10.815048
2093.601562	20.105339
2092.647461	-10.659353
2091.692383	53.691566
2090.737305	2.910724
2089.781250	37.211658
2088.826172	3.960373
2087.871094	-4.269519
2086.915039	-2.495414
2085.958984	31.779829
2085.002930	18.547150
2084.046875	-12.176845
2083.089844	42.070518
2082.133789	18.847122
2081.176758	40.594696
2080.219727	-17.588509
2079.262695	11.647942
2078.305664	30.886696
2077.348633	30.147930
2076.390625	21.920530
2075.432617	61.108109
2074.474609	25.432192
2073.516602	7.229855
2072.558594	3.997837
2071.599609	45.651688
2070.641602	17.480469
2069.682617	44.159424
2068.723633	30.950590
2067.764648	5.286044
2066.805664	24.476885
2065.845703	41.168644
2064.886719	22.985830
2063.926758	-5.152720
2062.966797	9.043962
2062.006836	-24.062206
2061.045898	7.553266
2060.085938	21.738592
2059.125000	-13.842957
2058.165039	50.092014
2057.204102	12.029652
2056.242188	8.793568
2055.281250	-34.222061
2054.320312	-0.161386
2053.358398	16.488188
2052.396484	3.311397
2051.434570	-32.222450
2050.472656	-0.672772
2049.509766	13.478763
2048.547852	7.759387
2047.584961	-7.890533
2046.622070	6.253362
2045.659180	15.427861
2044.696289	49.414040
2043.733398	-33.224106
2042.769531	47.889877
2041.805664	29.765411
2040.841797	4.207373
2039.877930	5.930918
2038.914062	10.132339
2037.950195	-10.453313
2036.985352	18.528713
2036.020508	27.678970
2035.055664	86.369896
2034.090820	3.863221
2033.125977	27.868052
2032.160156	7.296785
2031.195312	-10.791534
2030.229492	30.526726
2029.263672	42.134651
2028.297852	56.212269
2027.331055	-8.876484
2026.365234	42.304295
2025.398438	14.333361
2024.431641	43.238544
2023.464844	30.108625
2022.498047	29.340950
2021.531250	31.044346
2020.563477	27.804583
2019.596680	46.799080
2018.628906	58.376278
2017.661133	25.498940
2016.692383	-14.774998
2015.724609	-15.537126
2014.756836	35.531998
2013.788086	56.969517
2012.819336	1.913072
2011.850586	18.414606
2010.880859	42.308666
2009.912109	7.010681
2008.942383	80.209236
2007.973633	42.451199
2007.003906	19.493637
2006.034180	18.722322
2005.063477	47.516510
2004.093750	-4.991820
2003.123047	18.869926
2002.152344	-6.528162
2001.181641	34.559921
2000.210938	1.782343
1999.240234	72.389359
1998.268555	32.232895
1997.297852	1.932590
1996.326172	-8.678234
1995.354492	34.824558
1994.381836	14.374050
1993.410156	48.022396
1992.437500	69.366776
1991.465820	4.680012
1990.493164	21.109278
1989.520508	20.333775
1988.546875	31.840385
1987.574219	33.519035
1986.600586	-11.461839
1985.627930	0.044459
1984.654297	68.006905
1983.680664	13.225467
1982.706055	49.259228
1981.732422	9.221160
1980.757812	18.258499
1979.783203	34.650574
1978.808594	28.966509
1977.833984	37.995220
1976.859375	-24.069801
1975.883789	11.924744
1974.908203	52.807652
1973.933594	39.774445
1972.958008	36.543713
1971.981445	38.211834
1971.005859	-23.789433
1970.029297	105.205055
1969.053711	77.485092
1968.077148	-1.624232
1967.100586	29.414068
1966.123047	53.100677
1965.146484	103.688423
1964.168945	49.087185
1963.191406	72.757767
1962.213867	71.970352
1961.236328	5.180455
1960.258789	53.287334
1959.280273	30.509760
1958.302734	54.162750
1957.324219	92.463745
1956.345703	69.691261
1955.367188	85.998329
1954.387695	24.169443
1953.409180	81.977882
1952.429688	64.103874
1951.450195	73.079094
1950.470703	40.573891
1949.491211	71.504898
1948.510742	56.083660
1947.531250	40.668549
1946.550781	17.943830
1945.570312	46.418900
1944.589844	38.324932
1943.609375	35.107578
1942.627930	-7.092052
1941.646484	60.343063
1940.666016	18.154646
1939.684570	44.164448
1938.702148	75.033974
1937.720703	93.722069
1936.738281	68.593445
1935.756836	26.440434
1934.774414	47.559834
1933.791992	37.048466
1932.808594	21.675852
1931.826172	62.239265
1930.842773	34.711464
1929.860352	41.226395
1928.876953	91.486671
1927.893555	54.248535
1926.909180	77.763023
1925.925781	89.124161
1924.941406	73.764664
1923.957031	94.835556
1922.972656	45.490223
1921.988281	56.849213
1921.003906	22.090570
1920.018555	89.261665
1919.033203	73.918839
1918.048828	56.156521
1917.062500	79.630165
1916.077148	57.023026
1915.091797	51.395515
1914.105469	82.130577
1913.119141	35.298595
1912.132812	75.719093
1911.146484	57.978687
1910.160156	62.046070
1909.172852	61.267746
1908.186523	38.697063
1907.199219	69.397873
1906.211914	25.047615
1905.224609	60.581161
1904.236328	23.507380
1903.249023	90.481476
1902.260742	94.538559
1901.272461	59.897877
1900.284180	83.304482
1899.295898	53.514004
1898.306641	74.496353
1897.318359	119.640762
1896.329102	56.030117
1895.339844	40.762085
1894.350586	105.213623
1893.360352	36.809242
1892.371094	19.139023
1891.380859	78.732346
1890.390625	22.439184
1889.400391	144.761490
1888.410156	16.086555
1887.419922	85.290588
1886.428711	106.226517
1885.437500	52.391171
1884.446289	87.794373
1883.455078	111.131081
1882.463867	88.660812
1881.471680	39.687557
1880.480469	43.744728
1879.488281	64.664703
1878.496094	61.489956
1877.503906	87.217133
1876.510742	117.751045
1875.518555	85.679848
1874.525391	60.841061
1873.532227	52.858261
1872.539062	119.472488
1871.545898	135.541458
1870.551758	96.280380
1869.558594	124.373749
1868.564453	99.556816
1867.570312	108.407120
1866.576172	100.428818
1865.581055	90.049934
1864.586914	72.467316
1863.591797	45.281052
1862.596680	73.351418
1861.601562	103.814102
1860.606445	93.446693
1859.611328	54.274406
1858.615234	115.929855
1857.619141	81.567787
1856.623047	64.014816
1855.626953	89.651871
1854.630859	40.922546
1853.633789	90.537476
1852.637695	75.395622
1851.640625	101.014587
1850.643555	71.495117
1849.646484	87.520866
1848.648438	84.372101
1847.651367	76.434410
1846.653320	61.313736
1845.655273	74.937218
1844.657227	67.006767
1843.659180	71.049789
1842.660156	106.208076
1841.662109	71.953629
1840.663086	75.995178
1839.664062	101.566872
1838.665039	105.603226
1837.665039	85.723557
1836.666016	96.935883
1835.666016	69.894318
1834.666016	23.741259
1833.666016	8.672578
1832.666016	96.352829
1831.665039	66.943825
1830.665039	56.654865
1829.664062	96.519882
1828.663086	57.578014
1827.662109	102.204994
1826.660156	106.240067
1825.659180	48.228088
1824.657227	88.062874
1823.655273	37.232285
1822.653320	74.671501
1821.651367	16.708651
1820.648438	77.982552
1819.646484	53.415848
1818.643555	64.610260
1817.640625	68.652451
1816.637695	67.928780
1815.633789	21.943411
1814.630859	59.338722
1813.626953	82.432922
1812.623047	79.329277
1811.619141	57.183250
1810.615234	39.806183
1809.611328	27.195576
1808.606445	97.864647
1807.601562	37.672203
1806.596680	91.667198
1805.591797	31.498995
1804.586914	47.436211
1803.581055	63.368229
1802.575195	69.788490
1801.570312	47.691845
1800.563477	94.504662
1799.557617	84.290390
1798.551758	102.581718
1797.544922	25.880213
1796.538086	39.428280
1795.531250	100.449135
1794.524414	87.873741
1793.517578	91.914696
1792.509766	110.190086
1791.502930	54.923836
1790.495117	82.688301
1789.487305	65.389023
1788.478516	78.917892
1787.470703	59.256947
1786.461914	51.453712
1785.454102	62.611973
1784.445312	78.505272
1783.436523	28.067404
1782.426758	46.331142
1781.417969	116.685364
1780.408203	49.697262
1779.398438	51.380821
1778.388672	102.765831
1777.378906	59.481945
1776.368164	32.775066
1775.358398	81.774055
1774.347656	107.105804
1773.336914	73.314148
1772.326172	141.196396
1771.314453	43.590065
1770.303711	118.546005
1769.291992	77.691315
1768.280273	48.664906
1767.268555	78.702858
1766.256836	111.093025
1765.244141	67.911354
1764.232422	55.437912
1763.219727	90.178474
1762.207031	61.187099
1761.194336	84.118645
1760.180664	52.781246
1759.167969	99.296379
1758.154297	37.311134
1757.140625	50.803207
1756.126953	142.090118
1755.113281	47.134266
1754.098633	72.404076
1753.084961	85.885330
1752.070312	101.718353
1751.055664	39.817421
1750.041016	55.655514
1749.025391	-3.858770
1748.010742	84.963959
1746.995117	119.619209
1745.979492	133.083130
1744.963867	75.955292
1743.947266	56.488899
1742.931641	81.721298
1741.915039	88.132011
1740.898438	75.731491
1739.881836	93.897919
1738.865234	65.050247
1737.848633	55.014408
1736.831055	82.576714
1735.813477	56.099052
1734.795898	29.632153
1733.778320	61.885063
1732.760742	47.168884
1731.742188	16.026102
1730.724609	81.128044
1729.706055	80.500114
1728.687500	44.679420
1727.667969	135.549454
1726.649414	78.625298
1725.629883	92.073517
1724.610352	72.693565
1723.590820	104.894547
1722.571289	52.708828
1721.551758	115.368713
1720.531250	-18.801813
1719.511719	83.674652
1718.491211	36.219154
1717.470703	77.767235
1716.449219	46.721088
1715.428711	85.914528
1714.407227	54.880871
1713.385742	98.741493
1712.364258	156.625992
1711.342773	53.084457
1710.321289	75.877098
1709.298828	79.955498
1708.276367	121.441757
1707.253906	41.360954
1706.231445	68.819305
1705.208984	114.963356
1704.185547	109.692871
1703.163086	109.097984
1702.139648	120.181900
1701.116211	105.577438
1700.091797	74.636482
1699.068359	92.727875
1698.043945	78.140129
1697.019531	84.559952
1695.995117	81.646957
1694.970703	125.388580
1693.946289	129.469040
1692.920898	105.567810
1691.895508	49.037590
1690.871094	102.083939
1689.844727	50.238171
1688.819336	112.588608
1687.793945	91.049133
1686.767578	83.494156
1685.741211	101.561111
1684.714844	110.309334
1683.688477	123.712219
1682.661133	90.558670
1681.634766	85.345657
1680.607422	115.037827
1679.580078	65.623497
1678.552734	113.919762
1677.524414	97.084000
1676.497070	89.556885
1675.468750	40.188213
1674.440430	102.406792
1673.412109	73.971909
1672.383789	75.754417
1671.354492	89.152962
1670.325195	97.903069
1669.296875	111.296677
1668.267578	136.296036
1667.237305	96.287247
1666.208008	81.826157
1665.177734	116.104492
1664.147461	131.810638
1663.117188	75.599190
1662.086914	123.781746
1661.056641	79.189903
1660.025391	134.313293
1658.995117	115.238464
1657.963867	61.405670
1656.932617	72.478798
1655.900391	71.964737
1654.869141	78.402443
1653.836914	96.419662
1652.804688	75.065651
1651.772461	127.809471
1650.740234	127.294624
1649.708008	41.147320
1648.674805	165.608734
1647.641602	141.956070
1646.608398	173.830521
1645.575195	71.553246
1644.541992	163.554306
1643.507812	144.549362
1642.473633	148.668579
1641.439453	129.676544
1640.405273	145.354172
1639.371094	114.821358
1638.335938	81.990944
1637.301758	125.388016
1636.266602	83.334534
1635.231445	122.101768
1634.196289	96.225304
1633.160156	132.671799
1632.124023	132.187943
1631.088867	164.004868
1630.052734	179.665573
1629.015625	146.891510
1627.979492	91.073204
1626.942383	196.654129
1625.906250	170.815262
1624.869141	172.642044
1623.832031	167.557465
1622.793945	164.779968
1621.756836	134.365387
1620.718750	175.354218
1619.680664	172.582260
1618.642578	181.323700
1617.604492	134.822968
1616.565430	201.103775
1615.527344	163.823257
1614.488281	124.257072
1613.449219	218.110657
1612.409180	183.151627
1611.370117	164.301926
1610.330078	202.931427
1609.291016	184.088577
1608.250977	179.042191
1607.209961	203.868011
1606.169922	185.040421
1605.129883	219.047470
1604.088867	184.152695
1603.047852	252.590866
1602.006836	185.568390
1600.964844	196.606567
1599.923828	226.000900
1598.881836	193.439423
1597.839844	250.354446
1596.797852	190.281738
1595.755859	208.198013
1594.713867	249.036774
1593.670898	221.093918
1592.627930	174.827896
1591.584961	231.696472
1590.541992	196.904190
1589.498047	185.032516
1588.455078	207.520844
1587.411133	241.452011
1586.367188	197.532501
1585.323242	199.410934
1584.278320	247.062531
1583.234375	171.136383
1582.189453	250.809052
1581.144531	250.396652
1580.099609	229.403549
1579.054688	187.840775
1578.008789	256.030212
1576.963867	248.767685
1575.917969	271.218842
1574.872070	241.110474
1573.825195	224.721664
1572.779297	295.137482
1571.732422	278.748779
1570.685547	280.634338
1569.638672	380.685699
1568.591797	268.431793
1567.544922	325.093964
1566.497070	311.005768
1565.449219	353.956146
1564.401367	396.893188
1563.353516	341.757446
1562.305664	352.764557
1561.256836	427.599396
1560.208008	406.681732
1559.159180	397.167664
1558.110352	433.227173
1557.061523	387.267517
1556.011719	327.660461
1554.962891	443.420807
1553.913086	390.659332
1552.863281	535.963684
1551.812500	426.308960
1550.762695	510.118652
1549.711914	527.920532
1548.661133	436.529846
1547.610352	577.157288
1546.559570	524.451294
1545.507812	580.895691
1544.457031	562.308777
1543.405273	496.003326
1542.353516	579.696167
1541.301758	672.448730
1540.249023	535.748230
1539.197266	617.123962
1538.144531	553.148193
1537.091797	566.386902
1536.039062	622.750671
1534.985352	583.778198
1533.932617	578.857788
1532.878906	564.866333
1531.825195	578.100830
1530.771484	511.958008
1529.716797	518.398804
1528.663086	416.021759
1527.608398	436.081085
1526.553711	471.998962
1525.499023	480.716034
1524.444336	464.512329
1523.388672	382.631256
1522.333984	343.808929
1521.278320	445.382599
1520.222656	386.192719
1519.166016	399.454285
1518.110352	365.190552
1517.053711	330.940948
1515.997070	364.570740
1514.940430	364.263947
1513.883789	350.391266
1512.827148	325.220581
1511.769531	388.222412
1510.711914	326.895599
1509.654297	378.579742
1508.596680	355.689362
1507.538086	328.291138
1506.480469	312.197479
1505.421875	289.337158
1504.363281	318.414459
1503.304688	302.337158
1502.245117	256.927673
1501.186523	265.692627
1500.126953	227.078247
1499.067383	289.985992
1498.007812	185.981705
1496.948242	246.623383
1495.887695	244.119781
1494.827148	171.742569
1493.766602	194.047653
1492.706055	225.359818
1491.645508	193.582535
1490.583984	175.333313
1489.523438	269.695587
1488.461914	197.403534
1487.400391	179.169449
1486.337891	208.211594
1485.276367	221.492233
1484.213867	151.518646
1483.151367	171.557541
1482.088867	175.846649
1481.026367	159.896713
1479.962891	168.687119
1478.900391	146.004150
1477.836914	175.026413
1476.773438	177.073730
1475.708984	176.875427
1474.645508	151.968689
1473.581055	151.778900
1472.517578	232.432922
1471.452148	261.420258
1470.387695	274.685669
1469.323242	332.836151
1468.257812	395.455688
1467.192383	440.106018
1466.126953	639.521973
1465.061523	937.550720
1463.996094	1148.021729
1462.929688	1333.757080
1461.863281	1308.719849
1460.796875	1019.235229
1459.730469	707.448853
1458.664062	512.275391
1457.596680	391.092865
1456.529297	276.674408
1455.461914	220.517212
1454.394531	175.575882
1453.327148	139.606155
1452.258789	146.172348
1451.190430	114.699814
1450.122070	136.932083
1449.053711	139.027603
1447.985352	116.524513
1446.916016	161.109711
1445.847656	156.498993
1444.778320	82.602470
1443.708984	98.123993
1442.638672	124.813568
1441.569336	104.582848
1440.499023	97.762550
1439.428711	97.646049
1438.358398	90.833260
1437.288086	108.580521
1436.216797	119.627541
1435.145508	63.726742
1434.074219	88.168396
1433.002930	92.526718
1431.931641	50.048653
1430.859375	67.795631
1429.788086	25.341076
1428.715820	52.006397
1427.643555	49.690727
1426.570312	69.660950
1425.498047	111.905014
1424.424805	60.580227
1423.351562	87.224754
1422.278320	69.327362
1421.205078	58.117168
1420.131836	22.427912
1419.057617	51.293270
1417.983398	22.297234
1416.909180	42.257061
1415.834961	35.519913
1414.759766	97.728302
1413.684570	62.081818
1412.610352	95.366272
1411.534180	48.623241
1410.458984	79.679611
1409.383789	17.406477
1408.307617	81.783699
1407.231445	70.621880
1406.155273	92.776535
1405.079102	74.959518
1404.001953	137.067505
1402.925781	185.837845
1401.848633	161.361969
1400.771484	132.459259
1399.694336	94.695526
1398.616211	85.780121
1397.539062	105.697304
1396.460938	65.747246
1395.382812	32.463478
1394.303711	43.519852
1393.225586	45.710312
1392.146484	-9.701475
1391.067383	19.082796
1389.988281	32.355476
1388.909180	41.196583
1387.830078	-31.878639
1386.750000	56.661045
1385.669922	69.924591
1384.589844	41.143448
1383.509766	41.134678
1382.428711	41.127705
1381.348633	7.949565
1380.267578	41.118977
1379.186523	41.117264
1378.105469	63.220543
1377.023438	-34.018330
1375.942383	54.379826
1374.860352	27.873253
1373.778320	27.882668
1372.696289	-0.814474
1371.613281	65.441742
1370.530273	16.883913
1369.448242	45.594910
1368.365234	72.090729
1367.281250	69.896339
1366.198242	21.379505
1365.114258	32.431667
1364.030273	34.660961
1362.946289	36.891109
1361.862305	25.896036
1360.778320	39.150097
1359.693359	36.976246
1358.608398	54.633305
1357.523438	-2.608220
1356.438477	96.540237
1355.352539	63.536827
1354.267578	-0.275066
1353.181641	54.800961
1352.095703	70.244789
1351.009766	13.072407
1349.922852	-15.477878
1348.836914	10.973012
1347.750000	13.225127
1346.663086	33.068344
1345.575195	72.691597
1344.488281	-1.993510
1343.400391	77.181549
1342.312500	-6.262825
1341.224609	-1.803567
1340.136719	33.405266
1339.048828	-3.865160
1337.959961	15.965343
1336.871094	-34.456490
1335.782227	5.128792
1334.693359	16.173882
1333.603516	40.380791
1332.514648	22.901445
1331.424805	38.328537
1330.334961	5.509297
1329.244141	60.400990
1328.154297	27.592602
1327.063477	27.672382
1325.972656	-22.644955
1324.881836	12.500388
1323.791016	-20.269466
1322.700195	36.766300
1321.608398	93.783043
1320.516602	-17.792614
1319.424805	39.216259
1318.333008	59.001980
1317.240234	65.653725
1316.147461	-4.264251
1315.054688	8.961237
1313.961914	19.996443
1312.869141	-3.954783
1311.776367	74.850594
1310.682617	61.829639
1309.588867	13.849879
1308.495117	-21.001656
1307.400391	55.571255
1306.306641	36.016312
1305.211914	68.879456
1304.117188	68.982117
1303.022461	-7.316569
1301.927734	25.540636
1300.832031	14.744612
1299.737305	-6.955074
1298.641602	-26.464069
1297.544922	-0.164336
1296.449219	21.765829
1295.353516	67.671173
1294.256836	-4.146201
1293.160156	13.418085
1292.063477	13.545485
1290.965820	9.317206
1289.869141	50.833504
1288.771484	-16.553619
1287.673828	-36.012241
1286.576172	-7.568373
1285.477539	27.396555
1284.379883	16.649168
1283.281250	32.017006
1282.182617	6.047372
1281.083984	-17.736605
1279.984375	36.776569
1278.885742	60.831470
1277.786133	37.054295
1276.686523	26.327677
1275.586914	54.721306
1274.486328	35.307251
1273.386719	41.968510
1272.286133	-25.215279
1271.185547	16.200884
1270.083984	3.326061
1268.983398	25.188017
1267.881836	-2.873720
1266.781250	14.643833
1265.678711	40.834728
1264.577148	-11.071619
1263.475586	41.141094
1262.373047	-38.932468
1261.270508	78.307228
1260.167969	37.274055
1259.065430	-21.080399
1257.961914	61.427402
1256.859375	18.256414
1255.755859	11.924045
1254.652344	90.052834
1253.547852	27.417013
1252.444336	36.243118
1251.339844	-43.673428
1250.235352	21.428951
1249.130859	4.291093
1248.026367	52.057274
1246.920898	45.736473
1245.815430	32.931637
1244.709961	26.618523
1243.604492	-5.631285
1242.499023	7.518205
1241.392578	27.146656
1240.286133	-43.971184
1239.179688	5.902538
1238.073242	8.245833
1236.966797	19.226360
1235.859375	38.839676
1234.751953	64.922302
1233.644531	-3.961146
1232.537109	54.487492
1231.429688	46.038219
1230.321289	26.808369
1229.212891	35.621632
1228.104492	20.714634
1226.996094	44.617825
1225.886719	46.959637
1224.778320	64.386009
1223.668945	40.869755
1222.559570	-19.258583
1221.449219	0.327001
1220.339844	-16.702118
1219.229492	-10.040709
1218.119141	24.603300
1217.008789	-18.245378
1215.898438	1.326027
1214.787109	-32.895226
1213.676758	-2.571452
1212.565430	-0.216623
1211.454102	6.438685
1210.341797	23.842073
1209.230469	-51.189346
1208.118164	22.096571
1207.005859	43.787060
1205.893555	31.096949
1204.780273	16.264433
1203.667969	-13.595160
1202.554688	68.209404
1201.441406	14.738312
1200.328125	17.093122
1199.213867	13.010014
1198.100586	51.840633
1196.986328	17.720989
1195.872070	17.931356
1194.756836	15.998143
1193.642578	26.930037
1192.527344	-9.301323
1191.412109	-17.656685
1190.296875	14.705985
1189.181641	17.062737
1188.065430	-12.711819
1186.950195	49.617508
1185.833984	7.001054
1184.717773	17.923386
1183.600586	-5.405803
1182.484375	59.019119
1181.367188	54.949581
1180.250000	33.767120
1179.132812	19.009689
1178.014648	68.415611
1176.897461	53.658112
1175.779297	51.733440
1174.661133	4.924436
1173.542969	13.695200
1172.423828	-11.722476
1171.305664	16.275057
1170.186523	-11.268957
1169.067383	-2.499842
1167.948242	8.401546
1166.828125	68.397163
1165.708008	47.268261
1164.587891	64.557610
1163.467773	28.503185
1162.347656	13.793387
1161.227539	7.620225
1160.106445	9.979286
1158.985352	-2.585974
1157.864258	29.616512
1156.742188	38.364868
1155.621094	15.148110
1154.499023	23.896391
1153.376953	28.381742
1152.254883	54.161770
1151.131836	22.443737
1150.009766	-17.778276
1148.886719	37.795391
1147.763672	52.915714
1146.640625	29.732460
1145.516602	-6.205616
1144.392578	42.945660
1143.269531	30.409916
1142.145508	5.122495
1141.020508	45.742508
1139.896484	43.840569
1138.771484	-2.684410
1137.646484	-17.323769
1136.521484	10.525999
1135.396484	55.356033
1134.270508	51.331726
1133.144531	40.939827
1132.018555	-9.778167
1130.892578	7.434203
1129.766602	26.762169
1128.639648	24.868681
1127.512695	-8.840259
1126.385742	8.359704
1125.258789	70.079826
1124.130859	15.182160
1123.003906	53.563614
1121.875977	-5.549273
1120.748047	43.415890
1119.620117	41.522320
1118.491211	33.275742
1117.362305	-17.319817
1116.233398	54.901035
1115.104492	14.903992
1113.975586	53.229507
1112.845703	44.988098
1111.715820	62.137592
1110.585938	51.782101
1109.456055	24.511217
1108.326172	-9.093340
1107.195312	69.362389
1106.064453	33.648186
1104.933594	55.006954
1103.802734	48.889374
1102.671875	51.224144
1101.540039	17.651140
1100.408203	60.114635
1099.276367	5.437803
1098.144531	90.107941
1097.011719	67.104881
1095.878906	56.771530
1094.746094	33.782555
1093.613281	55.100658
1092.480469	8.919918
1091.346680	44.995384
1090.212891	26.241241
1089.079102	81.271072
1087.945312	5.612872
1086.811523	45.875652
1085.676758	50.308590
1084.541992	33.675735
1083.407227	29.684528
1082.272461	-5.889641
1081.136719	17.495436
1080.000977	38.766769
1078.865234	45.298676
1077.729492	-9.190160
1076.593750	60.457966
1075.457031	48.051743
1074.321289	10.414444
1073.184570	37.969177
1072.046875	10.857960
1070.910156	51.012161
1069.772461	57.529575
1068.634766	24.125355
1067.497070	45.348572
1066.359375	28.759636
1065.221680	28.974937
1064.083008	12.394407
1062.944336	37.800713
1061.805664	58.999817
1060.666016	25.635302
1059.527344	48.925713
1058.387695	26.061850
1057.248047	78.702789
1056.108398	70.518074
1054.967773	14.119552
1053.828125	35.292301
1052.687500	54.361389
1051.546875	35.709045
1050.405273	-1.790263
1049.264648	50.784477
1048.123047	27.953403
1046.981445	44.909954
1045.839844	-9.312304
1044.698242	39.037289
1043.555664	49.703259
1042.413086	24.798304
1041.270508	-8.465181
1040.127930	39.846390
1038.985352	31.682899
1037.841797	0.525321
1036.698242	19.543850
1035.554688	59.453018
1034.411133	28.305428
1033.266602	41.039268
1032.123047	76.743050
1030.978516	70.667168
1029.833984	33.274067
1028.688477	73.132965
1027.543945	50.361683
1026.398438	69.333656
1025.252930	57.002052
1024.107422	69.706337
1022.960938	7.323107
1021.815430	53.394012
1020.668945	80.683723
1019.522461	26.668413
1018.375000	20.606331
1017.228516	87.474983
1016.081055	35.569305
1014.933594	44.087093
1013.786133	79.674042
1012.637695	61.110901
1011.490234	11.326671
1010.341797	44.816292
1009.193359	-2.867084
1008.044922	38.933762
1006.895508	28.712109
1005.747070	41.371754
1004.597656	39.469585
1003.448242	72.912148
1002.297852	19.035244
1001.148438	69.094185
999.998047	60.951084
998.847656	106.827187
997.697266	127.759048
996.545898	223.447891
995.395508	437.457001
994.244141	825.774841
993.092773	1440.196777
991.940430	1790.830200
990.789062	1286.472778
989.636719	678.573975
988.484375	344.684601
987.332031	212.071686
986.179688	104.387154
985.026367	141.851212
983.873047	69.451935
982.719727	104.834427
981.566406	67.688057
980.413086	51.269001
979.258789	76.276993
978.104492	68.143448
976.950195	45.519600
975.795898	89.141220
974.640625	91.354736
973.485352	66.666977
972.330078	85.432076
971.174805	110.394470
970.019531	38.148888
968.863281	89.988388
967.707031	34.309406
966.550781	55.124950
965.394531	57.333138
964.237305	18.217024
963.081055	-4.359998
961.923828	74.273582
960.765625	72.342659
959.608398	68.346519
958.450195	33.387558
957.292969	8.759359
956.134766	91.439636
954.975586	56.492588
953.817383	38.058731
952.658203	65.001938
951.499023	110.491554
950.339844	83.808456
949.180664	67.440010
948.020508	65.502258
946.860352	86.228760
945.700195	53.385262
944.540039	39.089737
943.379883	49.509789
942.218750	51.689308
941.057617	70.335129
939.896484	58.100693
938.735352	27.349705
937.573242	62.445389
936.411133	85.184914
935.249023	40.046242
934.086914	54.554153
932.924805	46.441010
931.761719	81.495079
930.598633	56.936871
929.435547	96.083099
928.272461	63.311504
927.108398	88.062096
925.945312	86.105492
924.781250	75.935707
923.616211	78.085648
922.452148	113.072639
921.287109	107.004219
920.123047	123.505280
918.957031	66.152092
917.791992	103.161652
916.626953	154.510208
915.460938	99.229561
914.294922	91.113464
913.128906	140.382874
911.961914	117.916557
910.795898	56.532589
909.628906	77.101555
908.461914	122.236565
907.294922	105.927910
906.126953	79.388405
904.958984	85.605797
903.791016	91.819649
902.623047	61.201771
901.455078	32.639618
900.286133	87.942375
899.117188	79.832283
897.948242	45.145477
896.779297	22.734913
895.610352	61.643745
894.440430	57.626404
893.270508	47.480400
892.100586	53.677723
890.929688	43.533825
889.759766	27.266735
888.588867	15.087565
887.417969	66.185623
886.247070	45.838371
885.075195	49.981689
883.904297	48.002132
882.732422	15.428488
881.559570	60.355728
880.387695	37.983521
879.215820	62.502747
878.042969	25.869602
876.870117	7.588036
875.696289	3.573408
874.523438	5.669750
873.349609	3.691054
872.175781	81.123268
871.001953	87.272186
869.828125	34.389950
868.653320	26.297483
867.478516	24.310827
866.303711	42.666798
865.128906	24.404032
863.954102	12.247451
862.778320	79.388100
861.602539	24.534838
860.426758	73.354118
859.250000	24.616196
858.074219	14.496623
856.897461	38.911716
855.720703	26.760103
854.543945	32.886639
853.366211	63.371758
852.188477	22.801964
851.010742	75.598763
849.833008	35.039391
848.655273	59.410892
847.476562	85.800545
846.297852	45.258408
845.119141	61.500984
843.940430	55.437634
842.760742	53.429131
841.582031	27.103258
840.402344	6.864282
839.222656	57.529243
838.041992	35.264629
836.862305	51.480091
835.681641	61.614990
834.500977	11.020605
833.319336	61.632469
832.138672	25.218452
830.957031	75.806656
829.775391	49.514656
828.593750	19.186764
827.411133	49.525837
826.229492	49.529804
825.046875	41.448185
823.864258	15.181710
822.680664	57.617138
821.498047	51.555435
820.314453	-21.153107
819.130859	-2.968780
817.947266	39.434353
816.762695	29.339527
815.579102	101.991020
814.394531	49.513226
813.209961	-8.998241
812.024414	29.327812
810.839844	21.255810
809.654297	51.494972
808.468750	39.388245
807.283203	23.253990
806.096680	-0.935654
804.910156	71.591454
803.723633	37.327946
802.537109	47.384598
801.350586	57.436600
800.163086	25.205404
798.975586	3.049772
797.788086	31.214403
796.600586	61.379910
795.413086	51.297825
794.224609	21.104769
793.036133	11.032246
791.847656	25.090458
790.658203	31.101568
789.469727	67.258072
788.280273	4.933533
787.090820	53.134727
785.900391	29.001261
784.710938	26.968370
783.520508	32.967663
782.330078	-1.189219
781.139648	-13.254027
779.948242	71.016716
778.757812	24.830360
777.566406	52.888577
776.374023	62.883572
775.182617	32.765739
773.990234	38.749264
772.798828	12.655137
771.606445	52.711891
770.413086	-1.431298
769.220703	40.615417
768.027344	12.534667
766.833984	22.517014
765.640625	44.509674
764.446289	40.466820
763.252930	56.441696
762.058594	10.369426
760.864258	6.333462
759.669922	60.314896
758.474609	30.267593
757.279297	2.230757
756.083984	-5.801580
754.888672	28.149111
753.692383	50.094555
752.497070	62.039604
751.300781	14.041078
750.104492	35.975529
748.907227	21.951538
747.710938	25.903894
746.513672	57.805008
745.316406	19.830437
744.118164	-4.160192
742.920898	21.741539
741.722656	29.678511
740.524414	17.666126
739.326172	5.657897
738.126953	29.543411
736.928711	33.484818
735.729492	29.452078
734.530273	39.369843
733.330078	39.321796
732.130859	33.297482
730.930664	11.342234
729.730469	-14.587492
728.530273	49.082294
727.329102	-32.579590
726.127930	13.158245
724.926758	9.134525
723.725586	15.059262
722.524414	-0.897668
721.322266	-2.928032
720.120117	-0.981080
718.917969	-32.829559
717.715820	16.823359
716.512695	48.573200
715.309570	-23.002729
714.106445	32.579956
712.903320	-17.119392
711.700195	-7.229301
710.496094	16.554436
709.291992	-29.143850
708.087891	-19.256668
706.882812	34.279617
705.678711	14.393976
704.473633	34.185402
703.268555	2.409112
702.062500	-19.441353
700.857422	-9.565782
699.651367	-15.549503
698.445312	-7.659332
697.239258	-3.734300
696.032227	8.113116
694.825195	-35.497608
693.619141	0.113612
692.411133	37.691822
691.204102	9.936354
689.996094	-1.976096
688.788086	21.732092
687.580078	-19.851355
686.372070	37.476830
685.163086	29.525257
683.955078	19.599930
682.745117	-10.089005
681.536133	5.691706
680.327148	-4.221800
679.117188	15.504601
677.907227	-4.282324
676.697266	-4.311556
675.486328	13.431266
674.276367	-10.290462
673.065430	1.526694
671.854492	13.340219
670.642578	13.311571
669.431641	3.419963
668.219727	13.256602
667.007812	-14.377522
665.795898	27.006563
664.583008	-14.416736
663.370117	3.303101
662.157227	-38.098431
660.944336	-0.677333
659.731445	24.912054
658.517578	38.676418
657.303711	-10.572765
656.089844	18.944683
654.875977	9.085964
653.661133	3.168005
652.446289	-2.746616
651.231445	56.259911
650.016602	20.837450
648.800781	30.658281
647.584961	-24.404535
646.369141	22.772436
645.153320	32.591202
643.937500	3.107751
642.720703	5.070787
641.503906	14.891451
640.287109	8.998723
639.069336	-4.744313
637.852539	7.040133
636.634766	20.784506
635.416992	22.750708
634.198242	-10.598985
632.980469	10.992293
631.761719	-4.687776
630.542969	1.209987
629.324219	-8.577332
628.104492	-8.558216
626.884766	24.779840
625.665039	-14.393335
624.445312	1.304850
623.225586	-8.464626
622.004883	-2.561560
620.784180	-27.986910
619.563477	-4.460039
618.341797	-18.128000
617.121094	-12.220075
615.899414	64.122803
614.677734	-0.404736
613.455078	-8.187876
612.233398	-39.431278
611.010742	-43.289932
609.788086	3.677030
608.565430	13.496211
607.341797	-15.765192
606.119141	1.872651
604.895508	-7.838891
603.670898	50.805599
602.447266	-25.291758
601.222656	15.769467
599.998047	4.120035
598.773438	-28.987921
597.548828	-1.599264
596.323242	49.189522
595.097656	4.397409
593.872070	-3.326837
592.646484	-7.146514
591.419922	-9.012928
590.193359	4.714558
588.966797	-2.993571
587.740234	14.629013
586.513672	-0.863647
585.286133	22.599495
584.058594	-0.671257
582.831055	28.628386
581.602539	-19.930464
580.374023	-6.199618
579.145508	21.147673
577.916992	9.584279
576.688477	19.420898
575.458984	-19.353867
574.229492	4.099083
573.000000	33.377247
571.770508	49.044132
570.540039	33.620888
569.309570	12.378724
568.079102	-22.447983
566.848633	-0.944134
565.617188	12.789022
564.386719	18.755436
563.155273	51.893940
561.922852	11.287885
560.691406	-29.299793
559.458984	-23.316290
558.226562	33.090519
556.994141	-19.101650
555.761719	87.693207
554.528320	21.950035
553.294922	0.805830
552.061523	-0.952025
550.827148	32.162868
549.593750	-8.328172
548.359375	13.164504
547.125000	1.740311
545.889648	19.359295
544.655273	19.557514
543.419922	6.215114
542.184570	45.114971
540.949219	10.504181
539.712891	22.322788
538.476562	84.411209
537.240234	18.894791
536.003906	7.524042
534.766602	15.485599
533.530273	-9.396324
532.292969	35.275074
531.055664	4.613389
529.817383	56.997467
528.579102	-12.259360
527.340820	16.954233
526.102539	7.564395
524.864258	-30.759716
523.625000	6.170424
522.385742	4.516089
521.146484	4.795164
519.907227	7.006578
518.666992	70.906769
517.426758	24.931940
516.186523	29.078999
514.946289	71.760208
513.705078	23.899017
512.464844	26.131842
511.223633	-13.991544
509.981445	22.909428
508.740234	-21.038246
507.498047	-13.006024
506.255859	6.572019
505.013672	26.147512
503.770508	24.564613
502.528320	-7.779940
501.285156	-5.500867
500.041016	16.004627
498.797852	4.835404
497.553711	14.811980
496.309570	24.789890
495.065430	-7.487336
493.821289	42.829269
492.576172	14.411503
491.331055	-8.231336
490.085938	9.444788
488.840820	17.524803
487.594727	25.607466
486.348633	52.874481
485.102539	41.779613
483.856445	-1.902815
482.609375	25.370485
481.362305	56.472424
480.115234	5.163105
478.868164	19.023853
477.620117	67.367325
476.373047	71.645630
475.125000	22.309855
473.875977	-0.196991
472.627930	44.307674
471.378906	31.385841
470.129883	52.917610
468.880859	-11.644105
467.630859	44.329605
466.381836	18.053810
465.131836	7.090664
463.880859	32.460136
462.630859	36.800854
461.379883	-25.737326
460.128906	14.926623
458.877930	15.466161
457.626953	38.930111
456.375000	-0.622310
455.123047	66.759079
453.871094	63.495697
452.619141	44.972267
451.366211	24.554485
450.113281	7.966103
448.860352	52.425407
447.607422	60.641411
446.353516	74.581078
445.099609	107.584419
443.845703	73.875023
442.591797	17.318279
441.336914	86.531960
440.082031	5.245050
438.827148	53.498692
437.572266	38.905296
436.316406	70.014275
435.061523	32.595905
433.805664	57.998432
432.548828	18.708282
431.292969	80.260727
430.036133	77.131348
428.779297	24.568960
427.522461	15.761121
426.264648	3.162330
425.006836	15.281516
423.749023	63.505421
422.491211	-15.566785
421.233398	63.048992
419.974609	31.497549
418.715820	22.749283
417.457031	74.757820
416.197266	12.876088
414.938477	95.242516
413.678711	56.161369
412.417969	56.937500
411.158203	57.719719
409.897461	37.651554
408.636719	108.596970
407.375977	10.827565
406.115234	66.604736
404.853516	63.631992
403.591797	53.090092
402.330078	36.877388
401.068359	35.827301
399.805664	95.370972
398.542969	73.503204
397.280273	136.816803
396.017578	107.395248
394.753906	113.938248
393.490234	75.090202
392.226562	77.869255
390.962891	56.074619
389.698242	100.461044
388.433594	56.005322
387.168945	83.382507
385.904297	80.527374
384.638672	47.457905
383.373047	71.067154
382.107422	83.345406
380.841797	89.962799
379.575195	85.260803
378.308594	129.635040
377.041992	128.716141
375.775391	95.735176
374.507812	77.864098
373.241211	80.749878
371.973633	91.184654
370.705078	56.383133
369.437500	81.911270
368.168945	82.942154
366.900391	89.632187
365.631836	109.512657
364.362305	78.546547
363.092773	58.897270
361.823242	139.037079
360.553711	115.634911
359.283203	122.359322
358.013672	157.309708
356.742188	81.271957
355.471680	97.425995
354.201172	136.146225
352.929688	161.700241
351.658203	93.269310
350.386719	92.527168
349.114258	74.883545
347.841797	151.183853
346.569336	101.621460
345.296875	100.910492
344.024414	143.390411
342.750977	101.390923
341.477539	85.690414
340.204102	184.466721
338.929688	121.870888
337.655273	94.945587
336.380859	98.044281
335.106445	118.024734
333.832031	153.002670
332.556641	126.124214
331.281250	114.255348
330.005859	100.525246
328.729492	131.766693
327.453125	112.436546
326.176758	121.209236
324.900391	143.091492
323.624023	121.921776
322.346680	149.426483
321.069336	132.022430
319.791992	138.952225
318.513672	130.925232
317.235352	132.259155
315.957031	135.469925
314.678711	168.596008
313.400391	164.338242
312.121094	128.324921
310.841797	142.775284
309.562500	142.284744
308.282227	162.345901
307.001953	111.454849
305.721680	193.134094
304.441406	159.069855
303.161133	149.285385
301.879883	145.110580
300.598633	163.329483
299.317383	146.113464
298.035156	155.018066
296.753906	119.182007
295.471680	141.150970
294.188477	178.028946
292.906250	196.266617
291.623047	156.756241
290.339844	169.419327
289.056641	150.427795
287.772461	179.859467
286.489258	153.441879
285.205078	171.709518
283.919922	134.155930
282.635742	189.642639
281.350586	209.775650
280.065430	187.135254
278.780273	164.510498
277.494141	141.902695
276.208984	217.816345
274.922852	202.654037
273.635742	198.653183
272.349609	181.656494
271.062500	203.675735
269.775391	207.124786
268.488281	180.875473
267.200195	223.321259
265.912109	217.507126
264.624023	224.689758
263.335938	191.064667
262.047852	203.826874
260.758789	196.193985
259.469727	203.402542
258.180664	203.200043
256.890625	219.684952
255.600586	191.699158
254.310547	211.897629
253.020508	224.685593
251.729492	209.697861
250.438477	220.643265
249.147461	216.781067
247.856445	201.821381
246.565430	214.630203
245.273438	207.090073
243.981445	247.652206
242.688477	214.229767
241.396484	199.314835
240.103516	238.024612
238.810547	250.848297
237.516602	228.562119
236.223633	256.174438
234.929688	256.073608
233.635742	226.427261
232.341797	218.956161
231.046875	237.341400
229.751953	242.803467
228.457031	246.422806
227.162109	259.271332
225.866211	238.914581
224.570312	249.925842
223.274414	260.937469
221.978516	262.730560
220.681641	253.468414
219.384766	247.900146
218.087891	258.922333
216.791016	255.205719
215.493164	242.286133
214.195312	310.406677
212.897461	273.552643
211.598633	240.399689
210.300781	295.608582
209.001953	304.796021
207.703125	284.545654
206.403320	290.060760
205.103516	262.472260
203.803711	282.706207
202.503906	247.781937
201.204102	273.531006
199.903320	268.032806
198.602539	306.636688
197.301758	280.931976
196.000000	275.444519
194.699219	304.850250
193.397461	281.004974
192.094727	251.665512
190.792969	310.430786
189.490234	292.110107
188.187500	310.489502
186.884766	334.366028
185.581055	328.894379
184.277344	290.422943
182.973633	299.629517
181.669922	286.839874
180.365234	296.046906
179.061523	327.234924
177.756836	305.292206
176.451172	298.010986
175.146484	347.493835
173.840820	325.562195
172.535156	329.263763
171.228516	336.625183
169.922852	333.004181
168.616211	360.483398
167.309570	294.675720
166.001953	344.094818
164.695312	367.897278
163.387695	325.887146
162.080078	349.682983
160.771484	364.333801
159.463867	346.092987
158.155273	342.470642
156.845703	384.502350
155.537109	358.960663
154.227539	391.841431
152.917969	391.855774
151.608398	397.341553
150.298828	371.808105
148.988281	395.531372
147.677734	408.300232
146.367188	388.241089
145.055664	380.948212
143.744141	380.944702
142.432617	431.960663
141.121094	419.185730
139.808594	384.553986
138.497070	389.996155
137.183594	422.747162
135.871094	428.171417
134.558594	429.948029
133.245117	417.161407
131.931641	440.763153
130.617188	437.064667
129.303711	482.466583
127.989258	507.843506
126.674805	525.931824
125.359375	469.481781
124.044922	522.086426
122.729492	632.809082
121.413086	669.000000
120.097656	759.657043
118.781250	852.088379
117.464844	895.454529
116.148438	800.835876
114.832031	668.131958
113.514648	600.795410
112.197266	538.918274
110.879883	522.401917
109.561523	509.510406
108.243164	491.174347
106.924805	476.460632
105.606445	441.805023
104.288086	448.830383
102.968750	439.537415
101.649414	468.276154
100.329102	458.961090
99.009766	433.340057
97.689453	490.994476
96.369141	459.923523
95.047852	436.091492
93.727539	448.440674
92.406250	417.357635
91.084961	447.765839
89.762695	436.559265
88.440430	403.647583
87.119141	466.534027
85.795898	446.251312
84.473633	463.904327
83.150391	432.759918
81.827148	446.765900
80.503906	489.643402
79.179688	512.628601
77.856445	457.966431
76.531250	484.525177
75.207031	415.420288
73.882812	467.197601
72.557617	457.610657
71.232422	466.042633
69.906250	436.589539
68.581055	439.575867
67.254883	370.448669
65.928711	405.843628
64.601562	354.726471
63.275391	350.441040
61.948242	344.335968
60.621094	291.396118
59.292969	254.657883
57.964844	232.310699
56.636719	177.557465
55.308594	156.987183
53.980469	136.401382
52.651367	131.986954
51.322266	84.394020
49.993164	83.537971
48.663086	35.923649
47.333008	33.230179
46.002930	7.153746
44.672852	-8.160435
43.341797	1.650191
42.010742	-6.527533
40.679688	-5.752865
39.348633	2.173528
38.016602	-18.646168
36.684570	-1.805688
35.352539	-13.705072
34.019531	-9.486495
32.687500	-12.473570
31.354492	-13.696937
30.020508	2.975287
28.687500	-1.898197
27.353516	-5.009778
26.019531	-8.152899
24.685547	11.957787
23.350586	1.582482
22.015625	-12.404072
20.680664	7.593413
19.345703	0.700531
18.009766	-0.856767
16.673828	-2.449700
15.337891	4.865187
14.001953	-7.532866
12.665039	-9.235249
11.328125	3.326693
9.991211	-2.029100
8.653320	-3.848110
7.316406	-2.132883
5.978516	4.900247
4.639648	36.893734
3.301758	99.189743
1.962891	141.780731
0.624023	75.428825
